-0.035
-0.127
-0.142
-0.087
-0.048
-0.071
-0.051
-0.047
-0.002
0.051
-0.003
-0.089
-0.028
0.157
0.401
0.545
0.495
0.5
0.661
0.548
0.151
-0.266
-0.815
-1.104
-1.05
-0.921
-0.777
-0.624
-0.365
-0.103
0.041
0.098
0.17
0.196
0.21
0.208
0.221
0.228
0.23
0.232
0.227
0.231
0.23
0.265
0.25
0.268
0.273
0.284
0.278
0.287
0.305
0.291
0.278
0.28
0.308
0.327
0.332
0.343
0.347
0.359
0.369
0.363
0.363
0.377
0.385
0.355
0.353
0.335
0.334
0.314
0.287
0.277
0.275
0.244
0.196
0.191
0.163
0.138
0.102
0.06
0.031
0
-0.029
-0.085
-0.113
-0.116
-0.153
-0.184
-0.217
-0.242
-0.225
-0.232
-0.242
-0.248
-0.261
-0.258
-0.274
-0.26
-0.252
-0.24
-0.235
-0.247
-0.251
-0.249
-0.239
-0.231
-0.228
-0.206
-0.194
-0.192
-0.175
-0.163
-0.167
-0.152
-0.138
-0.133
-0.154
-0.15
-0.143
-0.14
-0.144
-0.115
-0.123
-0.113
-0.114
-0.112
-0.1
-0.099
-0.095
-0.102
-0.095
-0.096
-0.094
-0.101
-0.095
-0.096
-0.091
-0.076
-0.104
-0.11
-0.083
-0.037
-0.041
-0.082
-0.097
-0.072
-0.063
-0.024
0.012
0.101
0.176
0.188
0.1
-0.042
-0.059
0.074
0.177
0.158
0.071
-0.073
-0.129
-0.145
-0.115
-0.105
-0.098
-0.098
-0.099
-0.075
-0.096
-0.099
-0.083
-0.076
-0.081
-0.087
-0.081
-0.076
-0.093
-0.111
-0.094
-0.055
-0.055
-0.056
-0.058
-0.044
-0.056
-0.051
0
0.118
0.252
0.416
0.523
0.663
0.755
0.551
0.073
-0.415
-0.918
-1.094
-1.062
-0.907
-0.736
-0.504
-0.223
-0.017
0.088
0.148
0.157
0.178
0.191
0.199
0.233
0.211
0.212
0.215
0.231
0.228
0.227
0.241
0.263
0.285
0.311
0.314
0.303
0.281
0.258
0.259
0.288
0.323
0.354
0.367
0.349
0.342
0.357
0.365
0.366
0.371
0.372
0.363
0.36
0.361
0.343
0.328
0.353
0.417
0.403
0.333
0.211
0.176
0.185
0.192
0.168
0.17
0.113
-0.006
-0.086
-0.113
-0.111
-0.104
-0.141
-0.173
-0.188
-0.194
-0.205
-0.214
-0.204
-0.173
-0.105
-0.166
-0.228
-0.333
-0.392
-0.375
-0.333
-0.306
-0.269
-0.248
-0.254
-0.238
-0.238
-0.223
-0.217
-0.228
-0.174
-0.163
-0.161
-0.174
-0.174
-0.189
-0.177
-0.162
-0.154
-0.15
-0.099
0.014
0.013
-0.079
-0.195
-0.208
-0.194
-0.175
-0.141
-0.125
-0.129
-0.131
-0.098
-0.067
-0.082
-0.11
-0.127
-0.107
-0.099
-0.105
-0.112
-0.093
-0.094
-0.109
-0.091
-0.064
-0.065
-0.049
-0.033
-0.004
0.033
0.01
-0.003
0.011
0.059
0.074
0.064
0.068
0.052
0.009
-0.018
-0.029
-0.044
-0.066
-0.079
-0.079
-0.064
-0.073
-0.079
-0.089
-0.081
-0.075
-0.079
-0.082
-0.072
-0.073
-0.074
-0.082
-0.058
-0.053
-0.049
-0.039
-0.035
-0.037
-0.056
-0.038
0.01
0.119
0.206
0.385
0.514
0.647
0.78
0.625
0.172
-0.268
-0.812
-1.064
-1.055
-0.927
-0.777
-0.583
-0.332
-0.119
0.02
0.101
0.144
0.154
0.166
0.181
0.199
0.198
0.202
0.211
0.227
0.232
0.23
0.24
0.248
0.257
0.256
0.261
0.273
0.278
0.282
0.303
0.311
0.316
0.327
0.327
0.333
0.347
0.351
0.347
0.359
0.373
0.383
0.374
0.359
0.371
0.369
0.343
0.334
0.323
0.32
0.297
0.271
0.238
0.223
0.197
0.154
0.116
0.104
0.083
0.043
0.002
-0.037
-0.073
-0.096
-0.119
-0.145
-0.165
-0.196
-0.227
-0.231
-0.228
-0.237
-0.235
-0.241
-0.24
-0.244
-0.255
-0.237
-0.246
-0.243
-0.23
-0.227
-0.23
-0.224
-0.201
-0.194
-0.183
-0.185
-0.193
-0.164
-0.162
-0.145
-0.14
-0.137
-0.132
-0.132
-0.103
-0.107
-0.105
-0.1
-0.091
-0.081
-0.081
-0.086
-0.066
-0.069
-0.067
-0.055
-0.036
-0.031
-0.004
0.003
-0.012
-0.009
0.022
0.058
0.069
0.069
0.056
0.046
0.013
0.002
-0.018
-0.02
-0.048
-0.087
-0.088
-0.09
-0.095
-0.106
-0.122
-0.106
-0.112
-0.103
-0.102
-0.105
-0.12
-0.129
-0.098
-0.108
-0.087
-0.087
-0.085
-0.08
-0.088
-0.071
-0.073
-0.091
-0.07
0.017
0.132
0.251
0.444
0.541
0.71
0.735
0.433
0.015
-0.47
-0.951
-1.075
-1.027
-0.928
-0.787
-0.582
-0.32
-0.111
0.025
0.123
0.154
0.188
0.205
0.209
0.216
0.227
0.228
0.239
0.238
0.244
0.241
0.24
0.247
0.254
0.257
0.264
0.274
0.275
0.271
0.292
0.289
0.315
0.315
0.323
0.333
0.342
0.352
0.356
0.356
0.368
0.362
0.375
0.37
0.36
0.349
0.33
0.315
0.301
0.278
0.272
0.236
0.211
0.176
0.154
0.117
0.095
0.063
0.008
-0.007
-0.042
-0.068
-0.104
-0.135
-0.156
-0.176
-0.192
-0.206
-0.221
-0.232
-0.234
-0.236
-0.243
-0.24
-0.238
-0.24
-0.248
-0.239
-0.235
-0.24
-0.227
-0.233
-0.2
-0.202
-0.201
-0.195
-0.195
-0.187
-0.172
-0.185
-0.174
-0.156
-0.146
-0.141
-0.133
-0.129
-0.128
-0.128
-0.121
-0.112
-0.109
-0.109
-0.11
-0.102
-0.1
-0.105
-0.096
-0.095
-0.09
-0.089
-0.084
-0.084
-0.05
-0.052
-0.017
0.01
-0.004
-0.01
0.008
0.028
0.055
0.057
0.062
0.05
0.026
0.005
-0.008
-0.012
-0.03
-0.06
-0.064
-0.068
-0.077
-0.081
-0.09
-0.082
-0.077
-0.069
-0.052
-0.075
-0.094
-0.044
0.006
0.013
0.005
-0.057
-0.11
-0.129
-0.147
-0.149
-0.116
-0.101
-0.053
0.042
0.162
0.293
0.476
0.573
0.699
0.733
0.452
-0.064
-0.592
-1.068
-1.186
-1.1
-0.894
-0.732
-0.481
-0.195
-0.009
0.061
0.142
0.197
0.197
0.186
0.201
0.22
0.241
0.248
0.239
0.224
0.236
0.266
0.283
0.277
0.275
0.29
0.314
0.311
0.315
0.328
0.349
0.344
0.336
0.338
0.354
0.372
0.372
0.374
0.388
0.404
0.408
0.392
0.399
0.409
0.394
0.378
0.354
0.349
0.346
0.318
0.278
0.258
0.218
0.238
0.233
0.248
0.21
0.12
-0.015
-0.105
-0.111
-0.12
-0.145
-0.17
-0.189
-0.207
-0.226
-0.215
-0.21
-0.233
-0.221
-0.235
-0.2
-0.163
-0.069
-0.147
-0.315
-0.432
-0.426
-0.369
-0.324
-0.289
-0.291
-0.3
-0.255
-0.213
-0.196
-0.198
-0.196
-0.179
-0.155
-0.142
-0.116
-0.119
-0.102
-0.063
-0.023
-0.05
-0.148
-0.222
-0.283
-0.265
-0.18
-0.142
-0.146
-0.146
-0.105
-0.119
-0.15
-0.151
-0.115
-0.102
-0.096
-0.082
-0.105
-0.122
-0.112
-0.125
-0.088
-0.036
0.026
-0.003
-0.068
-0.103
-0.061
-0.033
-0.035
-0.003
0.011
0.007
0.046
0.049
0.07
0.023
0.012
0.015
0.011
0.017
0.006
-0.01
-0.044
-0.058
-0.086
-0.107
-0.062
-0.057
-0.081
-0.084
-0.043
-0.043
-0.046
-0.054
-0.006
0.011
0.013
-0.039
-0.088
-0.058
-0.022
-0.017
0.01
0.077
0.178
0.243
0.387
0.522
0.616
0.784
0.774
0.412
-0.124
-0.618
-1.05
-1.132
-0.997
-0.8
-0.605
-0.341
-0.106
0.075
0.195
0.247
0.283
0.278
0.302
0.298
0.293
0.297
0.344
0.379
0.367
0.356
0.337
0.364
0.385
0.395
0.365
0.351
0.352
0.371
0.384
0.428
0.443
0.426
0.406
0.397
0.398
0.432
0.46
0.45
0.459
0.457
0.448
0.449
0.467
0.458
0.445
0.422
0.383
0.326
0.305
0.327
0.347
0.319
0.242
0.18
0.178
0.192
0.209
0.16
0.027
-0.089
-0.105
-0.108
-0.111
-0.121
-0.156
-0.168
-0.203
-0.218
-0.224
-0.235
-0.253
-0.303
-0.269
-0.235
-0.221
-0.153
-0.229
-0.295
-0.331
-0.302
-0.246
-0.207
-0.222
-0.216
-0.213
-0.185
-0.173
-0.189
-0.189
-0.168
-0.161
-0.158
-0.1
-0.123
-0.138
-0.175
-0.133
-0.033
0.04
-0.044
-0.214
-0.276
-0.211
-0.128
-0.106
-0.158
-0.17
-0.172
-0.126
-0.124
-0.109
-0.109
-0.105
-0.138
-0.138
-0.11
-0.073
-0.07
-0.119
-0.201
-0.204
-0.18
-0.133
-0.115
-0.109
-0.08
-0.069
-0.053
-0.044
-0.027
-0.022
-0.026
0.005
0.019
0.012
0.004
-0.015
-0.038
-0.029
-0.041
-0.068
-0.101
-0.116
-0.124
-0.125
-0.139
-0.139
-0.14
-0.159
-0.147
-0.147
-0.125
-0.133
-0.132
-0.124
-0.126
-0.125
-0.128
-0.133
-0.106
-0.073
-0.095
-0.11
-0.111
-0.061
0.005
0.099
0.253
0.414
0.53
0.667
0.694
0.433
-0.081
-0.587
-1.036
-1.19
-1.13
-0.926
-0.728
-0.419
-0.136
0.01
0.088
0.127
0.156
0.176
0.189
0.185
0.204
0.206
0.199
0.211
0.229
0.233
0.245
0.256
0.263
0.261
0.248
0.238
0.238
0.226
0.249
0.267
0.279
0.274
0.292
0.349
0.39
0.373
0.324
0.264
0.247
0.283
0.315
0.326
0.312
0.305
0.285
0.275
0.265
0.24
0.216
0.192
0.188
0.177
0.149
0.123
0.102
0.075
0.078
0.043
0.012
-0.082
-0.159
-0.161
-0.134
-0.139
-0.199
-0.317
-0.369
-0.324
-0.3
-0.297
-0.324
-0.34
-0.337
-0.328
-0.317
-0.323
-0.307
-0.311
-0.302
-0.288
-0.286
-0.277
-0.258
-0.246
-0.24
-0.232
-0.241
-0.21
-0.205
-0.192
-0.179
-0.178
-0.176
-0.161
-0.149
-0.151
-0.147
-0.153
-0.157
-0.134
-0.149
-0.165
-0.161
-0.178
-0.152
-0.136
-0.122
-0.103
-0.112
-0.125
-0.12
-0.118
-0.114
-0.111
-0.105
-0.102
-0.081
-0.069
-0.067
-0.062
-0.054
-0.07
-0.047
-0.049
-0.033
-0.039
-0.028
-0.001
-0.003
0.011
0.025
0.025
0.048
0.077
0.087
0.095
0.101
0.116
0.118
0.127
0.134
0.127
0.113
0.092
0.066
0.058
0.038
0.023
0
-0.01
-0.005
-0.013
-0.028
-0.033
-0.039
-0.023
-0.023
-0.023
-0.023
-0.013
-0.012
-0.008
-0.007
0.007
0.008
0.007
0.014
0.013
0.012
0.007
0.047
0.129
0.229
0.395
0.546
0.654
0.779
0.738
0.336
-0.15
-0.666
-1.003
-1.067
-0.913
-0.719
-0.501
-0.229
0
0.118
0.19
0.221
0.236
0.249
0.265
0.267
0.272
0.289
0.297
0.297
0.297
0.299
0.309
0.306
0.301
0.303
0.318
0.324
0.326
0.319
0.324
0.341
0.345
0.35
0.353
0.358
0.363
0.366
0.365
0.378
0.378
0.377
0.381
0.38
0.383
0.38
0.362
0.35
0.334
0.302
0.291
0.272
0.25
0.228
0.206
0.191
0.168
0.133
0.083
0.052
0.017
-0.012
-0.044
-0.078
-0.105
-0.123
-0.16
-0.174
-0.19
-0.203
-0.235
-0.228
-0.234
-0.249
-0.253
-0.252
-0.255
-0.256
-0.255
-0.246
-0.245
-0.24
-0.236
-0.233
-0.237
-0.217
-0.21
-0.196
-0.181
-0.174
-0.177
-0.164
-0.155
-0.154
-0.152
-0.136
-0.132
-0.138
-0.139
-0.14
-0.126
-0.118
-0.116
-0.124
-0.101
-0.11
-0.102
-0.103
-0.106
-0.113
-0.101
-0.101
-0.096
-0.09
-0.093
-0.089
-0.086
-0.083
-0.083
-0.086
-0.095
-0.073
-0.068
-0.064
-0.073
-0.07
-0.056
-0.057
-0.045
-0.03
-0.001
0.012
0.026
0.029
0.03
0.036
0.052
0.071
0.079
0.082
0.068
0.045
0.023
0.021
-0.006
-0.014
-0.033
-0.044
-0.052
-0.046
-0.059
-0.07
-0.069
-0.071
-0.065
-0.073
-0.057
-0.061
-0.068
-0.068
-0.053
-0.056
-0.058
-0.036
-0.043
-0.038
-0.035
-0.045
-0.029
0.044
0.132
0.273
0.436
0.556
0.769
0.755
0.38
-0.046
-0.551
-0.94
-0.987
-0.885
-0.729
-0.594
-0.369
-0.136
0.02
0.095
0.133
0.15
0.163
0.179
0.197
0.201
0.205
0.211
0.219
0.218
0.222
0.231
0.245
0.253
0.243
0.247
0.267
0.271
0.277
0.285
0.292
0.294
0.302
0.304
0.315
0.326
0.334
0.336
0.346
0.358
0.349
0.348
0.355
0.35
0.353
0.339
0.327
0.314
0.301
0.286
0.264
0.242
0.228
0.203
0.176
0.154
0.129
0.089
0.052
0.024
-0.009
-0.044
-0.076
-0.114
-0.143
-0.158
-0.184
-0.2
-0.213
-0.225
-0.235
-0.246
-0.247
-0.251
-0.255
-0.257
-0.253
-0.269
-0.253
-0.236
-0.235
-0.228
-0.215
-0.209
-0.209
-0.199
-0.188
-0.185
-0.179
-0.177
-0.17
-0.169
-0.161
-0.158
-0.147
-0.144
-0.138
-0.133
-0.137
-0.122
-0.12
-0.12
-0.113
-0.118
-0.117
-0.127
-0.128
-0.123
-0.108
-0.11
-0.111
-0.108
-0.104
-0.107
-0.103
-0.096
-0.097
-0.098
-0.09
-0.094
-0.089
-0.088
-0.078
-0.059
-0.05
-0.036
-0.012
0.013
0.027
0.028
0.029
0.017
0.055
0.063
0.065
0.079
0.058
0.027
0.002
0.011
-0.004
-0.026
-0.042
-0.044
-0.053
-0.057
-0.069
-0.075
-0.077
-0.075
-0.063
-0.065
-0.069
-0.063
-0.055
-0.052
-0.049
-0.045
-0.04
-0.039
-0.032
-0.04
-0.042
-0.027
0.007
0.079
0.172
0.329
0.479
0.628
0.81
0.676
0.253
-0.181
-0.717
-0.962
-0.945
-0.823
-0.685
-0.521
-0.277
-0.061
0.061
0.125
0.156
0.171
0.18
0.192
0.198
0.198
0.207
0.219
0.227
0.229
0.229
0.232
0.245
0.233
0.262
0.267
0.276
0.28
0.279
0.281
0.297
0.293
0.291
0.3
0.312
0.313
0.316
0.316
0.325
0.336
0.335
0.334
0.333
0.333
0.325
0.309
0.304
0.289
0.273
0.253
0.234
0.216
0.197
0.179
0.151
0.119
0.099
0.066
0.024
-0.007
-0.018
-0.066
-0.103
-0.132
-0.162
-0.174
-0.203
-0.219
-0.236
-0.255
-0.264
-0.267
-0.266
-0.261
-0.256
-0.26
-0.261
-0.26
-0.253
-0.244
-0.259
-0.259
-0.234
-0.211
-0.209
-0.216
-0.2
-0.179
-0.164
-0.19
-0.179
-0.168
-0.172
-0.155
-0.164
-0.134
-0.114
-0.128
-0.144
-0.138
-0.122
-0.111
-0.098
-0.101
-0.124
-0.132
-0.115
-0.123
-0.118
-0.112
-0.093
-0.076
-0.091
-0.127
-0.08
-0.051
-0.056
-0.069
-0.037
-0.032
0
0.015
0
-0.001
0.024
0.041
0.057
0.06
0.061
0.028
-0.001
-0.003
-0.031
-0.039
-0.072
-0.083
-0.083
-0.096
-0.104
-0.119
-0.122
-0.128
-0.119
-0.117
-0.118
-0.121
-0.119
-0.112
-0.101
-0.108
-0.098
-0.089
-0.101
-0.093
-0.103
-0.106
-0.077
-0.023
0.061
0.134
0.3
0.45
0.607
0.739
0.55
0.15
-0.279
-0.771
-1.006
-0.972
-0.895
-0.783
-0.644
-0.424
-0.227
-0.037
0.039
0.085
0.1
0.105
0.151
0.161
0.156
0.168
0.166
0.174
0.185
0.173
0.229
0.194
0.203
0.2
0.194
0.245
0.288
0.27
0.232
0.241
0.199
0.257
0.276
0.303
0.272
0.306
0.313
0.309
0.295
0.306
0.343
0.344
0.369
0.34
0.287
0.306
0.302
0.302
0.288
0.293
0.302
0.214
0.163
0.184
0.202
0.17
0.156
0.021
0.005
0.007
-0.001
0.002
-0.049
-0.083
-0.088
-0.148
-0.194
-0.188
-0.136
-0.144
-0.163
-0.177
-0.222
-0.174
-0.153
-0.189
-0.161
-0.118
-0.141
-0.15
-0.141
-0.113
-0.089
-0.113
-0.134
-0.133
-0.134
-0.094
-0.094
-0.108
-0.087
-0.062
-0.066
-0.08
-0.06
-0.057
-0.044
-0.046
-0.086
-0.06
-0.037
-0.038
-0.039
0.026
-0.016
-0.032
-0.037
-0.013
0.007
0.043
0.029
0.011
0.03
-0.003
-0.021
-0.033
-0.063
-0.087
-0.135
-0.144
-0.136
-0.131
-0.14
-0.16
-0.165
-0.142
-0.141
-0.088
-0.062
-0.016
-0.014
-0.086
-0.178
-0.226
-0.23
-0.177
-0.164
-0.144
-0.137
-0.144
-0.15
-0.117
-0.016
0.124
0.25
0.459
0.51
0.629
0.654
0.304
-0.133
-0.636
-1.044
-1.138
-1.052
-0.926
-0.804
-0.598
-0.313
-0.108
0.041
0.12
0.163
0.189
0.218
0.224
0.239
0.235
0.249
0.252
0.258
0.26
0.284
0.295
0.334
0.355
0.361
0.372
0.334
0.316
0.309
0.285
0.297
0.312
0.347
0.365
0.391
0.388
0.372
0.353
0.365
0.401
0.4
0.407
0.41
0.4
0.401
0.402
0.414
0.368
0.29
0.259
0.265
0.208
0.226
0.227
0.145
0.122
0.073
0.001
-0.057
-0.062
-0.067
-0.082
-0.096
-0.116
-0.149
-0.151
-0.132
-0.165
-0.157
-0.194
-0.257
-0.253
-0.201
-0.172
-0.16
-0.181
-0.21
-0.215
-0.248
-0.261
-0.221
-0.179
-0.171
-0.137
-0.129
-0.13
-0.156
-0.144
-0.134
-0.085
-0.049
-0.072
-0.14
-0.142
-0.116
-0.096
-0.045
-0.045
-0.067
-0.079
-0.071
-0.022
0.02
0.041
0.023
0.013
0.048
0.07
0.148
0.198
0.162
-0.002
-0.106
-0.136
-0.101
-0.081
-0.075
-0.118
-0.168
-0.211
-0.157
-0.119
-0.142
-0.162
-0.161
-0.142
-0.123
-0.127
-0.123
-0.058
0.043
0.019
-0.115
-0.253
-0.232
-0.192
-0.123
-0.07
-0.069
-0.054
0.067
0.184
0.401
0.552
0.645
0.722
0.56
0.076
-0.397
-0.862
-1.142
-1.176
-1.129
-0.945
-0.729
-0.427
-0.128
0.107
0.161
0.138
0.088
0.115
0.207
0.318
0.327
0.226
0.137
0.156
0.193
0.282
0.364
0.377
0.275
0.166
0.188
0.241
0.293
0.356
0.348
0.316
0.275
0.287
0.305
0.352
0.417
0.479
0.429
0.378
0.333
0.31
0.337
0.389
0.434
0.438
0.414
0.365
0.303
0.305
0.364
0.386
0.315
0.141
0.066
0.043
0.079
0.12
0.086
-0.028
-0.1
-0.112
-0.125
-0.148
-0.157
-0.163
-0.162
-0.167
-0.224
-0.272
-0.278
-0.276
-0.289
-0.268
-0.249
-0.259
-0.268
-0.255
-0.251
-0.24
-0.236
-0.238
-0.232
-0.217
-0.205
-0.213
-0.211
-0.185
-0.155
-0.146
-0.173
-0.167
-0.17
-0.175
-0.149
-0.133
-0.122
-0.1
-0.074
-0.062
-0.028
-0.034
-0.034
-0.015
0.03
0.049
0.046
0.046
0.026
-0.008
-0.012
-0.023
-0.042
-0.073
-0.117
-0.124
-0.137
-0.137
-0.152
-0.159
-0.147
-0.148
-0.147
-0.143
-0.141
-0.134
-0.122
-0.116
-0.112
-0.114
-0.131
-0.12
-0.099
-0.097
-0.108
-0.123
-0.11
-0.041
0.092
0.197
0.378
0.553
0.612
0.713
0.592
0.126
-0.391
-0.937
-1.249
-1.271
-1.122
-0.904
-0.675
-0.384
-0.126
0.047
0.135
0.181
0.223
0.214
0.232
0.238
0.265
0.322
0.31
0.28
0.186
0.165
0.208
0.244
0.263
0.277
0.305
0.324
0.345
0.446
0.409
0.309
0.231
0.258
0.304
0.473
0.71
0.728
0.563
0.311
0.14
0.134
0.222
0.29
0.328
0.34
0.34
0.32
0.304
0.284
0.262
0.239
0.222
0.205
0.195
0.162
0.126
0.082
0.057
0.029
-0.025
-0.065
-0.111
-0.141
-0.154
-0.158
-0.181
-0.218
-0.22
-0.212
-0.22
-0.24
-0.243
-0.246
-0.249
-0.246
-0.25
-0.232
-0.213
-0.214
-0.219
-0.227
-0.204
-0.194
-0.19
-0.179
-0.169
-0.164
-0.163
-0.153
-0.146
-0.125
-0.11
-0.088
-0.07
-0.041
-0.038
-0.04
-0.037
-0.013
0.028
0.04
0.041
0.036
0.017
0.025
0.031
0.015
-0.02
-0.096
-0.149
-0.17
-0.163
-0.158
-0.167
-0.163
-0.167
-0.163
-0.162
-0.161
-0.158
-0.152
-0.154
-0.145
-0.14
-0.138
-0.138
-0.134
-0.131
-0.126
-0.126
-0.133
-0.135
-0.086
0.034
0.142
0.317
0.457
0.524
0.661
0.589
0.161
-0.356
-0.901
-1.268
-1.332
-1.175
-0.962
-0.724
-0.412
-0.148
-0.009
0.074
0.119
0.147
0.16
0.18
0.183
0.19
0.207
0.214
0.219
0.205
0.211
0.232
0.235
0.247
0.25
0.247
0.258
0.267
0.275
0.282
0.295
0.298
0.3
0.313
0.318
0.319
0.334
0.339
0.341
0.339
0.339
0.341
0.335
0.323
0.317
0.294
0.289
0.266
0.24
0.218
0.199
0.177
0.154
0.124
0.104
0.08
0.04
-0.015
-0.043
-0.073
-0.104
-0.14
-0.169
-0.186
-0.21
-0.22
-0.241
-0.252
-0.262
-0.267
-0.279
-0.281
-0.282
-0.288
-0.297
-0.278
-0.276
-0.262
-0.254
-0.264
-0.274
-0.268
-0.26
-0.254
-0.238
-0.229
-0.223
-0.217
-0.204
-0.179
-0.152
-0.128
-0.109
-0.089
-0.089
-0.08
-0.059
-0.022
-0.008
-0.027
-0.035
-0.055
-0.069
-0.074
-0.1
-0.12
-0.14
-0.172
-0.191
-0.198
-0.211
-0.213
-0.216
-0.226
-0.224
-0.212
-0.206
-0.216
-0.213
-0.212
-0.207
-0.197
-0.205
-0.197
-0.187
-0.174
-0.176
-0.179
-0.182
-0.172
-0.107
0.015
0.121
0.303
0.451
0.582
0.684
0.479
-0.012
-0.512
-1.057
-1.252
-1.23
-1.031
-0.824
-0.568
-0.281
-0.099
-0.001
0.059
0.099
0.123
0.134
0.154
0.165
0.174
0.191
0.201
0.212
0.219
0.22
0.234
0.245
0.239
0.244
0.268
0.261
0.277
0.292
0.31
0.322
0.335
0.337
0.357
0.365
0.369
0.382
0.389
0.395
0.4
0.394
0.388
0.391
0.385
0.362
0.355
0.351
0.329
0.321
0.291
0.265
0.251
0.225
0.193
0.171
0.152
0.108
0.072
0.056
0.019
-0.027
-0.05
-0.083
-0.101
-0.115
-0.128
-0.127
-0.147
-0.169
-0.171
-0.185
-0.188
-0.177
-0.171
-0.177
-0.166
-0.147
-0.157
-0.165
-0.141
-0.142
-0.133
-0.122
-0.111
-0.106
-0.096
-0.098
-0.095
-0.072
-0.06
-0.056
-0.043
-0.017
0.01
0.03
0.026
0.035
0.056
0.095
0.115
0.099
0.081
0.071
0.044
0.028
0.013
0.003
-0.02
-0.041
-0.059
-0.08
-0.089
-0.098
-0.104
-0.107
-0.103
-0.11
-0.113
-0.11
-0.1
-0.109
-0.101
-0.097
-0.086
-0.077
-0.068
-0.066
-0.061
-0.063
-0.053
-0.05
-0.031
0.068
0.155
0.33
0.499
0.62
0.779
0.716
0.297
-0.17
-0.721
-1.043
-1.085
-0.936
-0.752
-0.562
-0.288
-0.065
0.062
0.138
0.189
0.197
0.212
0.226
0.23
0.243
0.254
0.267
0.267
0.277
0.281
0.286
0.303
0.312
0.311
0.327
0.332
0.339
0.333
0.357
0.362
0.368
0.365
0.372
0.392
0.408
0.413
0.423
0.421
0.44
0.428
0.418
0.423
0.42
0.389
0.367
0.36
0.361
0.339
0.316
0.29
0.274
0.261
0.237
0.191
0.163
0.138
0.107
0.075
0.042
0.015
-0.015
-0.049
-0.085
-0.103
-0.118
-0.13
-0.141
-0.163
-0.169
-0.165
-0.173
-0.188
-0.179
-0.18
-0.18
-0.192
-0.179
-0.169
-0.164
-0.149
-0.148
-0.158
-0.124
-0.124
-0.12
-0.115
-0.12
-0.114
-0.1
-0.09
-0.085
-0.083
-0.085
-0.075
-0.065
-0.051
-0.023
-0.003
0.015
0.012
0.005
0.003
0.034
0.063
0.068
0.055
0.042
0.028
0.021
-0.004
-0.035
-0.046
-0.077
-0.09
-0.093
-0.107
-0.121
-0.113
-0.11
-0.112
-0.135
-0.128
-0.125
-0.13
-0.121
-0.109
-0.11
-0.12
-0.115
-0.099
-0.087
-0.087
-0.087
-0.087
-0.084
-0.043
0.05
0.117
0.291
0.447
0.581
0.729
0.641
0.248
-0.204
-0.754
-1.073
-1.102
-0.947
-0.78
-0.581
-0.312
-0.089
0.041
0.103
0.134
0.162
0.175
0.182
0.195
0.193
0.21
0.231
0.237
0.229
0.223
0.243
0.243
0.249
0.258
0.268
0.279
0.295
0.295
0.287
0.3
0.316
0.32
0.326
0.336
0.351
0.348
0.343
0.354
0.365
0.354
0.349
0.355
0.338
0.33
0.315
0.292
0.272
0.262
0.248
0.235
0.217
0.194
0.168
0.147
0.125
0.085
0.036
0.021
-0.011
-0.047
-0.105
-0.139
-0.138
-0.15
-0.182
-0.196
-0.213
-0.22
-0.239
-0.249
-0.244
-0.243
-0.249
-0.3
-0.255
-0.266
-0.247
-0.221
-0.217
-0.231
-0.249
-0.194
-0.199
-0.197
-0.176
-0.165
-0.171
-0.157
-0.168
-0.152
-0.148
-0.146
-0.146
-0.15
-0.157
-0.152
-0.145
-0.137
-0.119
-0.131
-0.112
-0.084
-0.057
-0.052
-0.063
-0.071
-0.053
-0.008
0.029
0.001
0.014
-0.001
-0.057
-0.064
-0.072
-0.06
-0.108
-0.125
-0.137
-0.161
-0.159
-0.163
-0.168
-0.173
-0.173
-0.156
-0.164
-0.16
-0.171
-0.177
-0.176
-0.19
-0.159
-0.116
-0.126
-0.123
-0.12
-0.13
-0.118
-0.08
0
0.043
0.208
0.359
0.489
0.676
0.634
0.225
-0.218
-0.745
-1.083
-1.125
-0.983
-0.813
-0.638
-0.384
-0.138
-0.005
0.052
0.087
0.094
0.115
0.138
0.132
0.154
0.125
0.155
0.173
0.184
0.18
0.178
0.2
0.22
0.206
0.237
0.238
0.234
0.253
0.259
0.266
0.279
0.276
0.288
0.295
0.294
0.31
0.311
0.306
0.312
0.316
0.313
0.306
0.301
0.291
0.279
0.277
0.251
0.226
0.211
0.21
0.2
0.174
0.134
0.122
0.085
0.088
0.058
0
-0.014
-0.041
-0.076
-0.106
-0.126
-0.153
-0.18
-0.195
-0.2
-0.206
-0.207
-0.234
-0.241
-0.246
-0.248
-0.253
-0.24
-0.232
-0.221
-0.251
-0.205
-0.213
-0.181
-0.173
-0.176
-0.182
-0.177
-0.154
-0.142
-0.152
-0.151
-0.132
-0.141
-0.133
-0.134
-0.119
-0.114
-0.117
-0.11
-0.12
-0.126
-0.123
-0.134
-0.105
-0.086
-0.05
-0.06
-0.034
-0.029
-0.028
-0.019
0.021
0.038
0.038
0.038
0.018
0.014
-0.002
-0.031
-0.029
-0.055
-0.08
-0.105
-0.122
-0.138
-0.137
-0.145
-0.146
-0.148
-0.142
-0.137
-0.143
-0.141
-0.144
-0.135
-0.12
-0.116
-0.12
-0.114
-0.1
-0.09
-0.113
-0.112
-0.06
0.051
0.156
0.331
0.462
0.596
0.72
0.511
0.07
-0.394
-0.93
-1.098
-1.065
-0.885
-0.74
-0.544
-0.276
-0.056
0.05
0.118
0.142
0.148
0.16
0.191
0.195
0.183
0.207
0.221
0.231
0.232
0.219
0.236
0.252
0.247
0.273
0.274
0.265
0.299
0.293
0.308
0.317
0.312
0.322
0.334
0.343
0.348
0.349
0.354
0.367
0.359
0.35
0.355
0.35
0.352
0.333
0.317
0.307
0.299
0.27
0.246
0.244
0.192
0.207
0.176
0.144
0.124
0.109
0.054
0.033
0.008
-0.019
-0.06
-0.088
-0.098
-0.131
-0.163
-0.172
-0.178
-0.181
-0.21
-0.208
-0.215
-0.211
-0.215
-0.231
-0.212
-0.206
-0.209
-0.214
-0.2
-0.184
-0.173
-0.166
-0.168
-0.165
-0.148
-0.143
-0.14
-0.14
-0.137
-0.127
-0.108
-0.114
-0.108
-0.106
-0.113
-0.096
-0.083
-0.067
-0.055
-0.036
-0.027
-0.034
-0.022
0.02
0.04
0.054
0.066
0.044
0.011
-0.003
-0.012
-0.039
-0.072
-0.102
-0.106
-0.123
-0.143
-0.14
-0.143
-0.143
-0.15
-0.149
-0.147
-0.128
-0.137
-0.14
-0.135
-0.112
-0.109
-0.107
-0.111
-0.102
-0.101
-0.109
-0.105
-0.038
0.072
0.163
0.351
0.478
0.626
0.755
0.508
0.056
-0.383
-0.9
-1.079
-1.034
-0.901
-0.767
-0.587
-0.344
-0.13
-0.006
0.104
0.139
0.149
0.169
0.187
0.193
0.199
0.203
0.211
0.237
0.243
0.247
0.261
0.269
0.272
0.274
0.289
0.284
0.292
0.3
0.317
0.317
0.335
0.333
0.315
0.338
0.344
0.347
0.359
0.382
0.383
0.377
0.374
0.376
0.377
0.352
0.334
0.313
0.295
0.294
0.272
0.24
0.23
0.207
0.183
0.153
0.135
0.104
0.077
0.037
0.002
-0.026
-0.056
-0.087
-0.112
-0.132
-0.161
-0.152
-0.178
-0.187
-0.193
-0.195
-0.202
-0.215
-0.199
-0.203
-0.201
-0.184
-0.194
-0.181
-0.175
-0.187
-0.173
-0.154
-0.147
-0.157
-0.126
-0.129
-0.121
-0.12
-0.11
-0.097
-0.098
-0.096
-0.093
-0.087
-0.074
-0.048
-0.019
-0.012
-0.008
0.002
0.031
0.051
0.066
0.064
0.054
0.041
0.017
-0.002
-0.014
-0.041
-0.074
-0.094
-0.112
-0.127
-0.141
-0.129
-0.146
-0.139
-0.147
-0.135
-0.146
-0.144
-0.138
-0.131
-0.134
-0.127
-0.123
-0.132
-0.111
-0.111
-0.125
-0.109
-0.028
0.09
0.195
0.371
0.486
0.613
0.75
0.539
0.06
-0.382
-0.917
-1.108
-1.083
-0.95
-0.797
-0.629
-0.37
-0.14
-0.004
0.063
0.115
0.138
0.147
0.154
0.168
0.173
0.185
0.189
0.202
0.217
0.218
0.222
0.225
0.226
0.245
0.247
0.255
0.261
0.258
0.268
0.296
0.291
0.297
0.3
0.32
0.327
0.338
0.338
0.342
0.347
0.341
0.341
0.328
0.321
0.308
0.295
0.278
0.278
0.262
0.229
0.215
0.192
0.177
0.15
0.115
0.1
0.058
0.017
-0.004
-0.039
-0.055
-0.08
-0.129
-0.146
-0.16
-0.178
-0.206
-0.217
-0.224
-0.229
-0.242
-0.242
-0.248
-0.237
-0.239
-0.246
-0.264
-0.228
-0.226
-0.225
-0.228
-0.207
-0.203
-0.199
-0.197
-0.183
-0.175
-0.167
-0.16
-0.156
-0.162
-0.163
-0.144
-0.145
-0.141
-0.147
-0.109
-0.094
-0.066
-0.06
-0.047
-0.032
-0.008
0.021
0.032
0.032
0.031
0.018
-0.007
-0.022
-0.046
-0.064
-0.081
-0.114
-0.13
-0.142
-0.17
-0.181
-0.157
-0.162
-0.165
-0.162
-0.156
-0.163
-0.159
-0.162
-0.157
-0.137
-0.168
-0.128
-0.127
-0.12
-0.12
-0.122
-0.1
-0.003
0.097
0.255
0.413
0.509
0.663
0.64
0.26
-0.216
-0.743
-1.146
-1.218
-1.094
-0.886
-0.688
-0.41
-0.154
-0.006
0.074
0.114
0.14
0.157
0.18
0.168
0.176
0.2
0.215
0.23
0.24
0.237
0.237
0.243
0.25
0.265
0.273
0.277
0.291
0.287
0.295
0.303
0.311
0.333
0.331
0.339
0.351
0.359
0.353
0.37
0.367
0.371
0.369
0.37
0.355
0.345
0.332
0.306
0.295
0.295
0.276
0.254
0.233
0.212
0.184
0.148
0.147
0.115
0.076
0.025
-0.01
-0.022
-0.05
-0.074
-0.095
-0.133
-0.151
-0.158
-0.189
-0.184
-0.197
-0.213
-0.214
-0.218
-0.231
-0.218
-0.219
-0.218
-0.217
-0.21
-0.188
-0.187
-0.179
-0.174
-0.173
-0.158
-0.151
-0.167
-0.181
-0.135
-0.128
-0.135
-0.136
-0.118
-0.112
-0.112
-0.112
-0.11
-0.109
-0.111
-0.106
-0.101
-0.101
-0.098
-0.085
-0.06
-0.025
-0.015
-0.02
-0.015
0.012
0.053
0.049
0.075
0.062
0.025
0.01
-0.002
-0.01
-0.042
-0.07
-0.095
-0.106
-0.123
-0.133
-0.134
-0.134
-0.147
-0.133
-0.128
-0.119
-0.13
-0.139
-0.123
-0.106
-0.113
-0.11
-0.097
-0.092
-0.093
-0.099
-0.081
-0.032
0.068
0.16
0.333
0.459
0.597
0.718
0.537
0.079
-0.395
-0.932
-1.164
-1.143
-0.933
-0.754
-0.522
-0.242
-0.036
0.072
0.132
0.157
0.17
0.191
0.205
0.203
0.208
0.213
0.222
0.214
0.223
0.237
0.252
0.262
0.263
0.272
0.284
0.289
0.295
0.316
0.314
0.298
0.314
0.332
0.338
0.357
0.348
0.326
0.371
0.387
0.385
0.371
0.367
0.366
0.356
0.339
0.323
0.316
0.303
0.273
0.265
0.242
0.235
0.212
0.188
0.155
0.132
0.096
0.067
0.026
-0.012
-0.027
-0.066
-0.084
-0.11
-0.133
-0.16
-0.182
-0.201
-0.193
-0.218
-0.23
-0.228
-0.221
-0.211
-0.239
-0.221
-0.218
-0.209
-0.2
-0.202
-0.192
-0.195
-0.178
-0.168
-0.17
-0.178
-0.137
-0.139
-0.135
-0.123
-0.121
-0.128
-0.112
-0.119
-0.114
-0.111
-0.106
-0.113
-0.099
-0.104
-0.101
-0.096
-0.111
-0.105
-0.085
-0.099
-0.088
-0.091
-0.089
-0.1
-0.088
-0.069
-0.054
-0.035
-0.017
-0.001
-0.007
0.009
0.046
0.068
0.069
0.072
0.034
0.028
0.019
-0.004
-0.007
-0.04
-0.079
-0.094
-0.093
-0.12
-0.135
-0.113
-0.111
-0.131
-0.124
-0.11
-0.108
-0.112
-0.104
-0.106
-0.096
-0.093
-0.088
-0.087
-0.08
-0.091
-0.085
-0.055
0.032
0.134
0.295
0.443
0.59
0.721
0.616
0.192
-0.248
-0.78
-1.088
-1.118
-0.959
-0.792
-0.587
-0.32
-0.075
0.055
0.123
0.143
0.171
0.19
0.216
0.207
0.218
0.234
0.246
0.248
0.25
0.254
0.265
0.275
0.283
0.269
0.309
0.294
0.294
0.319
0.327
0.341
0.344
0.342
0.341
0.358
0.359
0.358
0.363
0.375
0.377
0.367
0.356
0.371
0.365
0.354
0.325
0.331
0.309
0.291
0.267
0.247
0.221
0.202
0.187
0.153
0.135
0.094
0.071
0.024
0.003
-0.029
-0.041
-0.078
-0.098
-0.128
-0.138
-0.164
-0.176
-0.194
-0.196
-0.214
-0.226
-0.228
-0.226
-0.224
-0.224
-0.218
-0.209
-0.216
-0.209
-0.206
-0.186
-0.184
-0.18
-0.164
-0.159
-0.153
-0.161
-0.145
-0.141
-0.128
-0.118
-0.119
-0.124
-0.126
-0.108
-0.117
-0.106
-0.113
-0.089
-0.109
-0.114
-0.107
-0.108
-0.096
-0.103
-0.11
-0.107
-0.105
-0.099
-0.124
-0.1
-0.093
-0.094
-0.103
-0.1
-0.095
-0.092
-0.096
-0.114
-0.069
-0.08
-0.073
-0.061
-0.066
-0.018
-0.015
0.022
0.022
0.014
0.038
0.042
0.062
0.071
0.076
0.072
0.054
0.031
0.013
0.003
-0.014
-0.049
-0.052
-0.043
-0.062
-0.071
-0.071
-0.07
-0.083
-0.095
-0.069
-0.069
-0.068
-0.077
-0.053
-0.06
-0.051
-0.059
-0.038
-0.06
-0.05
-0.035
0.018
0.116
0.207
0.374
0.493
0.646
0.727
0.523
0.061
-0.425
-0.924
-1.091
-1.028
-0.87
-0.715
-0.467
-0.214
-0.012
0.084
0.141
0.15
0.187
0.19
0.183
0.221
0.227
0.225
0.231
0.248
0.239
0.252
0.247
0.269
0.25
0.26
0.279
0.294
0.288
0.289
0.303
0.301
0.306
0.295
0.324
0.333
0.335
0.341
0.331
0.321
0.352
0.327
0.346
0.331
0.347
0.319
0.301
0.297
0.272
0.238
0.234
0.234
0.204
0.179
0.167
0.15
0.126
0.108
0.067
0.052
0.021
-0.005
-0.047
-0.087
-0.104
-0.129
-0.153
-0.179
-0.191
-0.21
-0.212
-0.214
-0.254
-0.247
-0.241
-0.252
-0.245
-0.24
-0.243
-0.235
-0.226
-0.215
-0.209
-0.204
-0.196
-0.193
-0.178
-0.18
-0.164
-0.157
-0.157
-0.158
-0.149
-0.145
-0.129
-0.137
-0.13
-0.133
-0.129
-0.135
-0.141
-0.115
-0.133
-0.114
-0.119
-0.125
-0.121
-0.122
-0.118
-0.121
-0.139
-0.15
-0.107
-0.112
-0.106
-0.108
-0.105
-0.096
-0.081
-0.067
-0.023
-0.008
0.005
0.011
0.051
0.059
0.061
0.086
0.076
0.051
0.029
0
-0.011
-0.036
-0.071
-0.074
-0.089
-0.123
-0.089
-0.097
-0.117
-0.105
-0.112
-0.099
-0.095
-0.103
-0.105
-0.087
-0.091
-0.074
-0.078
-0.068
-0.063
-0.073
-0.079
-0.003
0.079
0.172
0.368
0.469
0.636
0.748
0.49
0.027
-0.441
-0.912
-1.066
-1.016
-0.845
-0.7
-0.498
-0.246
-0.031
0.061
0.128
0.15
0.16
0.18
0.201
0.186
0.206
0.217
0.234
0.228
0.22
0.212
0.248
0.242
0.252
0.252
0.259
0.276
0.278
0.283
0.298
0.303
0.304
0.303
0.315
0.321
0.32
0.344
0.339
0.336
0.34
0.333
0.337
0.336
0.333
0.313
0.283
0.292
0.272
0.253
0.232
0.22
0.195
0.17
0.167
0.141
0.1
0.098
0.064
0.036
0.012
-0.02
-0.058
-0.097
-0.125
-0.137
-0.155
-0.171
-0.193
-0.209
-0.236
-0.234
-0.229
-0.229
-0.236
-0.249
-0.247
-0.239
-0.225
-0.225
-0.235
-0.218
-0.196
-0.207
-0.192
-0.181
-0.172
-0.17
-0.169
-0.168
-0.16
-0.162
-0.134
-0.139
-0.134
-0.133
-0.134
-0.133
-0.128
-0.118
-0.129
-0.132
-0.119
-0.124
-0.123
-0.126
-0.119
-0.116
-0.111
-0.112
-0.115
-0.123
-0.111
-0.1
-0.093
-0.058
-0.033
-0.014
0.005
0.043
0.031
0.054
0.087
0.072
0.061
0.042
0.023
-0.003
-0.035
-0.057
-0.08
-0.095
-0.09
-0.103
-0.114
-0.106
-0.113
-0.113
-0.113
-0.117
-0.102
-0.108
-0.096
-0.078
-0.079
-0.084
-0.067
-0.067
-0.09
-0.084
-0.029
0.071
0.165
0.323
0.468
0.59
0.762
0.615
0.189
-0.219
-0.759
-1.034
-1.016
-0.914
-0.769
-0.643
-0.411
-0.165
-0.004
0.084
0.127
0.149
0.165
0.185
0.185
0.206
0.203
0.209
0.21
0.24
0.247
0.244
0.252
0.258
0.256
0.268
0.279
0.286
0.281
0.293
0.31
0.306
0.306
0.317
0.315
0.335
0.332
0.348
0.352
0.348
0.363
0.346
0.349
0.336
0.35
0.317
0.304
0.301
0.273
0.26
0.253
0.234
0.209
0.194
0.174
0.145
0.127
0.103
0.062
0.036
0.013
-0.025
-0.045
-0.078
-0.091
-0.108
-0.135
-0.159
-0.179
-0.172
-0.187
-0.199
-0.209
-0.2
-0.192
-0.221
-0.192
-0.188
-0.193
-0.177
-0.176
-0.171
-0.166
-0.159
-0.155
-0.169
-0.139
-0.136
-0.139
-0.133
-0.13
-0.124
-0.127
-0.123
-0.106
-0.109
-0.118
-0.115
-0.108
-0.107
-0.102
-0.104
-0.104
-0.094
-0.092
-0.071
-0.049
-0.018
-0.018
-0.013
0.022
0.037
0.055
0.063
0.05
0.049
0.038
0.012
-0.014
-0.047
-0.075
-0.122
-0.106
-0.134
-0.128
-0.139
-0.141
-0.143
-0.14
-0.137
-0.14
-0.152
-0.133
-0.12
-0.117
-0.112
-0.117
-0.098
-0.092
-0.112
-0.096
-0.069
-0.009
0.09
0.202
0.393
0.487
0.633
0.706
0.414
-0.025
-0.48
-0.959
-1.079
-1.022
-0.889
-0.744
-0.561
-0.313
-0.084
0.041
0.099
0.132
0.146
0.168
0.19
0.19
0.203
0.197
0.215
0.228
0.227
0.244
0.249
0.254
0.253
0.263
0.273
0.276
0.266
0.27
0.301
0.305
0.292
0.31
0.313
0.331
0.325
0.327
0.33
0.342
0.349
0.345
0.337
0.334
0.332
0.319
0.301
0.289
0.281
0.268
0.238
0.235
0.187
0.183
0.162
0.139
0.11
0.081
0.046
0.012
-0.015
-0.034
-0.072
-0.102
-0.128
-0.142
-0.155
-0.203
-0.205
-0.21
-0.222
-0.235
-0.24
-0.24
-0.242
-0.238
-0.236
-0.234
-0.24
-0.224
-0.228
-0.192
-0.197
-0.186
-0.172
-0.159
-0.175
-0.149
-0.143
-0.141
-0.129
-0.125
-0.121
-0.129
-0.12
-0.113
-0.114
-0.106
-0.099
-0.098
-0.102
-0.116
-0.099
-0.093
-0.088
-0.088
-0.092
-0.094
-0.091
-0.09
-0.076
-0.062
-0.034
-0.01
0.001
0.018
0.056
0.063
0.068
0.095
0.097
0.077
0.049
0.036
0.007
-0.013
-0.067
-0.066
-0.082
-0.099
-0.121
-0.111
-0.119
-0.122
-0.113
-0.108
-0.111
-0.111
-0.107
-0.101
-0.1
-0.095
-0.073
-0.073
-0.08
-0.073
-0.082
-0.055
0.023
0.114
0.229
0.397
0.508
0.668
0.703
0.407
-0.058
-0.548
-1.024
-1.142
-1.074
-0.893
-0.714
-0.475
-0.2
-0.015
0.073
0.131
0.171
0.181
0.2
0.211
0.225
0.222
0.219
0.247
0.256
0.255
0.258
0.273
0.268
0.269
0.28
0.283
0.286
0.295
0.303
0.312
0.311
0.317
0.333
0.338
0.331
0.336
0.359
0.358
0.362
0.369
0.355
0.353
0.35
0.328
0.348
0.331
0.309
0.291
0.273
0.25
0.226
0.212
0.189
0.161
0.138
0.11
0.074
0.045
0.029
-0.002
-0.045
-0.072
-0.094
-0.115
-0.135
-0.15
-0.187
-0.206
-0.209
-0.222
-0.241
-0.23
-0.235
-0.229
-0.23
-0.237
-0.242
-0.21
-0.209
-0.215
-0.195
-0.179
-0.172
-0.177
-0.169
-0.165
-0.16
-0.153
-0.142
-0.141
-0.151
-0.126
-0.121
-0.119
-0.121
-0.121
-0.121
-0.133
-0.125
-0.115
-0.122
-0.13
-0.128
-0.11
-0.124
-0.132
-0.114
-0.12
-0.11
-0.121
-0.129
-0.108
-0.105
-0.091
-0.093
-0.06
-0.029
-0.022
-0.001
0.039
0.051
0.045
0.07
0.064
0.048
0.033
0.007
-0.013
-0.041
-0.07
-0.098
-0.106
-0.107
-0.125
-0.119
-0.128
-0.131
-0.126
-0.132
-0.117
-0.113
-0.12
-0.111
-0.089
-0.1
-0.1
-0.081
-0.077
-0.076
-0.093
-0.069
0.005
0.098
0.239
0.413
0.518
0.664
0.692
0.374
-0.114
-0.597
-1.053
-1.153
-1.052
-0.865
-0.676
-0.424
-0.184
0.006
0.104
0.134
0.167
0.173
0.187
0.197
0.204
0.205
0.215
0.219
0.241
0.24
0.251
0.262
0.266
0.262
0.271
0.283
0.283
0.288
0.291
0.309
0.311
0.309
0.31
0.326
0.327
0.329
0.33
0.342
0.339
0.351
0.346
0.342
0.348
0.335
0.308
0.281
0.295
0.279
0.261
0.233
0.225
0.2
0.176
0.133
0.133
0.105
0.091
0.054
0.016
0
-0.025
-0.05
-0.084
-0.108
-0.13
-0.156
-0.167
-0.186
-0.199
-0.21
-0.219
-0.228
-0.222
-0.222
-0.219
-0.225
-0.223
-0.205
-0.198
-0.193
-0.186
-0.177
-0.183
-0.16
-0.157
-0.16
-0.151
-0.147
-0.126
-0.12
-0.123
-0.124
-0.119
-0.104
-0.103
-0.101
-0.1
-0.107
-0.117
-0.111
-0.104
-0.103
-0.097
-0.098
-0.101
-0.103
-0.103
-0.087
-0.084
-0.06
-0.028
-0.005
-0.004
0.013
0.051
0.063
0.071
0.082
0.056
0.039
0.038
0.014
-0.022
-0.061
-0.077
-0.106
-0.104
-0.116
-0.121
-0.137
-0.122
-0.126
-0.124
-0.117
-0.117
-0.117
-0.116
-0.108
-0.112
-0.109
-0.094
-0.093
-0.077
-0.081
-0.088
-0.064
0.028
0.1
0.241
0.408
0.523
0.695
0.642
0.247
-0.194
-0.71
-1.068
-1.114
-0.992
-0.815
-0.622
-0.363
-0.114
0.031
0.099
0.129
0.153
0.175
0.19
0.183
0.207
0.218
0.229
0.219
0.225
0.229
0.249
0.264
0.262
0.265
0.278
0.291
0.278
0.277
0.295
0.304
0.32
0.317
0.318
0.325
0.343
0.348
0.34
0.353
0.358
0.347
0.347
0.337
0.33
0.347
0.326
0.313
0.302
0.276
0.248
0.25
0.226
0.209
0.178
0.154
0.138
0.108
0.09
0.048
0.026
-0.006
-0.032
-0.073
-0.087
-0.105
-0.131
-0.16
-0.165
-0.182
-0.203
-0.21
-0.216
-0.218
-0.226
-0.215
-0.224
-0.208
-0.209
-0.188
-0.189
-0.179
-0.173
-0.164
-0.16
-0.168
-0.145
-0.138
-0.124
-0.126
-0.12
-0.109
-0.113
-0.114
-0.114
-0.127
-0.095
-0.088
-0.113
-0.099
-0.113
-0.105
-0.106
-0.118
-0.097
-0.108
-0.119
-0.107
-0.095
-0.085
-0.081
-0.051
-0.021
-0.019
-0.004
-0.005
0.045
0.065
0.073
0.077
0.068
0.051
0.028
0.004
-0.02
-0.05
-0.097
-0.077
-0.107
-0.121
-0.117
-0.112
-0.119
-0.122
-0.134
-0.115
-0.122
-0.125
-0.114
-0.101
-0.1
-0.106
-0.078
-0.085
-0.086
-0.088
-0.098
-0.061
0.005
0.102
0.231
0.406
0.505
0.68
0.681
0.352
-0.089
-0.593
-1.004
-1.081
-1
-0.818
-0.655
-0.414
-0.166
0.005
0.099
0.137
0.162
0.169
0.203
0.208
0.205
0.216
0.234
0.24
0.236
0.249
0.244
0.261
0.263
0.265
0.257
0.272
0.28
0.301
0.302
0.31
0.313
0.318
0.311
0.325
0.319
0.326
0.328
0.327
0.324
0.332
0.327
0.314
0.332
0.325
0.303
0.29
0.288
0.279
0.256
0.229
0.228
0.211
0.183
0.161
0.137
0.107
0.089
0.055
0.031
0.008
-0.015
-0.048
-0.081
-0.092
-0.122
-0.146
-0.166
-0.176
-0.202
-0.219
-0.232
-0.226
-0.224
-0.224
-0.225
-0.23
-0.211
-0.201
-0.207
-0.191
-0.182
-0.169
-0.172
-0.162
-0.156
-0.148
-0.146
-0.139
-0.135
-0.145
-0.138
-0.139
-0.12
-0.108
-0.106
-0.101
-0.112
-0.125
-0.102
-0.096
-0.083
-0.059
-0.045
-0.05
-0.025
-0.023
0.013
0.042
0.048
0.054
0.04
0.016
0.005
-0.041
-0.042
-0.07
-0.113
-0.119
-0.14
-0.156
-0.165
-0.149
-0.157
-0.158
-0.16
-0.161
-0.163
-0.166
-0.168
-0.147
-0.137
-0.144
-0.128
-0.122
-0.113
-0.122
-0.13
-0.116
-0.033
0.071
0.166
0.35
0.468
0.62
0.715
0.458
0.015
-0.459
-0.946
-1.084
-1.036
-0.915
-0.774
-0.607
-0.367
-0.138
-0.013
0.067
0.1
0.133
0.151
0.156
0.154
0.181
0.175
0.185
0.195
0.188
0.198
0.207
0.209
0.22
0.213
0.226
0.24
0.245
0.25
0.254
0.243
0.269
0.276
0.279
0.292
0.305
0.298
0.3
0.308
0.305
0.321
0.302
0.301
0.292
0.292
0.281
0.258
0.233
0.212
0.209
0.182
0.162
0.146
0.103
0.086
0.067
0.044
0.023
-0.009
-0.033
-0.061
-0.087
-0.12
-0.139
-0.148
-0.176
-0.194
-0.201
-0.206
-0.215
-0.237
-0.225
-0.22
-0.225
-0.241
-0.23
-0.217
-0.222
-0.196
-0.195
-0.19
-0.174
-0.162
-0.165
-0.172
-0.161
-0.136
-0.138
-0.125
-0.123
-0.121
-0.104
-0.106
-0.101
-0.092
-0.089
-0.083
-0.059
-0.033
-0.019
-0.014
-0.018
0.002
0.031
0.066
0.077
0.081
0.057
0.051
0.017
-0.001
-0.016
-0.049
-0.076
-0.095
-0.1
-0.105
-0.122
-0.147
-0.127
-0.116
-0.132
-0.129
-0.12
-0.12
-0.113
-0.11
-0.105
-0.101
-0.086
-0.08
-0.078
-0.068
-0.072
-0.073
-0.021
0.059
0.175
0.341
0.49
0.6
0.745
0.586
0.121
-0.299
-0.82
-1.089
-1.058
-0.971
-0.813
-0.653
-0.405
-0.182
0.006
0.096
0.135
0.167
0.186
0.204
0.212
0.216
0.213
0.214
0.236
0.229
0.242
0.25
0.258
0.267
0.263
0.269
0.284
0.286
0.281
0.298
0.303
0.314
0.319
0.315
0.327
0.33
0.329
0.336
0.352
0.356
0.344
0.336
0.362
0.343
0.338
0.314
0.31
0.287
0.271
0.254
0.24
0.224
0.196
0.179
0.148
0.123
0.098
0.063
0.052
0.012
-0.012
-0.031
-0.059
-0.086
-0.116
-0.129
-0.134
-0.159
-0.178
-0.175
-0.184
-0.213
-0.195
-0.206
-0.209
-0.196
-0.206
-0.193
-0.175
-0.184
-0.192
-0.165
-0.16
-0.165
-0.144
-0.142
-0.134
-0.126
-0.128
-0.133
-0.126
-0.115
-0.106
-0.109
-0.111
-0.097
-0.095
-0.098
-0.088
-0.083
-0.049
-0.035
-0.039
-0.008
-0.01
0.014
0.041
0.066
0.062
0.074
0.061
0.031
0.013
0.003
-0.037
-0.064
-0.089
-0.1
-0.114
-0.127
-0.136
-0.154
-0.137
-0.134
-0.143
-0.132
-0.141
-0.121
-0.132
-0.131
-0.128
-0.119
-0.12
-0.1
-0.105
-0.1
-0.103
-0.097
-0.042
0.072
0.142
0.324
0.447
0.581
0.687
0.504
0.018
-0.447
-0.982
-1.215
-1.194
-0.998
-0.818
-0.585
-0.297
-0.061
0.048
0.101
0.13
0.167
0.19
0.207
0.198
0.216
0.226
0.242
0.239
0.236
0.248
0.256
0.266
0.269
0.265
0.266
0.282
0.281
0.293
0.31
0.313
0.319
0.319
0.329
0.34
0.333
0.355
0.352
0.355
0.359
0.348
0.35
0.338
0.347
0.312
0.309
0.296
0.292
0.266
0.235
0.212
0.208
0.182
0.159
0.128
0.109
0.086
0.046
0.025
0.006
-0.014
-0.049
-0.082
-0.12
-0.126
-0.143
-0.161
-0.192
-0.209
-0.214
-0.216
-0.232
-0.242
-0.23
-0.228
-0.232
-0.24
-0.194
-0.203
-0.205
-0.199
-0.188
-0.173
-0.169
-0.176
-0.16
-0.143
-0.144
-0.138
-0.133
-0.128
-0.13
-0.13
-0.121
-0.121
-0.121
-0.118
-0.118
-0.116
-0.11
-0.111
-0.112
-0.108
-0.096
-0.066
-0.055
-0.028
-0.005
-0.013
0.021
0.04
0.058
0.06
0.055
0.022
0.015
-0.013
-0.034
-0.047
-0.095
-0.095
-0.106
-0.133
-0.124
-0.13
-0.142
-0.142
-0.137
-0.127
-0.133
-0.133
-0.131
-0.132
-0.118
-0.119
-0.121
-0.105
-0.103
-0.084
-0.102
-0.096
-0.071
0.018
0.125
0.283
0.431
0.514
0.671
0.622
0.216
-0.247
-0.77
-1.118
-1.173
-1.015
-0.827
-0.618
-0.313
-0.09
0.046
0.119
0.157
0.171
0.186
0.212
0.214
0.221
0.224
0.251
0.248
0.251
0.261
0.252
0.265
0.279
0.277
0.287
0.281
0.292
0.285
0.298
0.306
0.304
0.306
0.322
0.334
0.328
0.324
0.335
0.345
0.339
0.354
0.339
0.343
0.348
0.332
0.296
0.299
0.292
0.258
0.238
0.22
0.212
0.192
0.161
0.145
0.116
0.094
0.07
0.038
0.012
-0.016
-0.043
-0.072
-0.111
-0.123
-0.14
-0.168
-0.18
-0.196
-0.222
-0.229
-0.216
-0.221
-0.217
-0.212
-0.233
-0.203
-0.2
-0.199
-0.189
-0.178
-0.168
-0.168
-0.162
-0.178
-0.143
-0.133
-0.128
-0.13
-0.138
-0.122
-0.117
-0.103
-0.12
-0.108
-0.108
-0.112
-0.105
-0.086
-0.095
-0.102
-0.089
-0.105
-0.122
-0.086
-0.089
-0.092
-0.091
-0.104
-0.093
-0.095
-0.093
-0.073
-0.056
-0.028
-0.019
-0.013
0
0.038
0.041
0.068
0.072
0.052
0.036
0.014
-0.016
-0.039
-0.063
-0.086
-0.103
-0.124
-0.113
-0.118
-0.117
-0.116
-0.122
-0.123
-0.121
-0.115
-0.115
-0.109
-0.096
-0.092
-0.103
-0.091
-0.069
-0.071
-0.08
-0.095
-0.081
-0.009
0.089
0.215
0.38
0.49
0.648
0.698
0.409
-0.046
-0.537
-0.995
-1.113
-1.028
-0.855
-0.7
-0.437
-0.182
-0.006
0.082
0.145
0.15
0.169
0.198
0.207
0.199
0.22
0.22
0.239
0.227
0.237
0.249
0.26
0.259
0.253
0.258
0.288
0.278
0.272
0.299
0.308
0.306
0.303
0.319
0.33
0.318
0.334
0.322
0.338
0.334
0.34
0.331
0.335
0.35
0.334
0.319
0.3
0.286
0.261
0.253
0.235
0.222
0.202
0.18
0.131
0.139
0.116
0.089
0.048
0.034
0.014
-0.02
-0.052
-0.075
-0.091
-0.125
-0.136
-0.162
-0.185
-0.192
-0.204
-0.23
-0.221
-0.216
-0.234
-0.238
-0.214
-0.207
-0.194
-0.203
-0.185
-0.179
-0.174
-0.176
-0.16
-0.145
-0.137
-0.132
-0.124
-0.126
-0.119
-0.116
-0.114
-0.101
-0.099
-0.095
-0.092
-0.097
-0.098
-0.092
-0.09
-0.088
-0.09
-0.097
-0.093
-0.094
-0.115
-0.087
-0.094
-0.093
-0.105
-0.085
-0.092
-0.086
-0.078
-0.081
-0.079
-0.061
-0.025
-0.012
0.009
0.029
0.067
0.058
0.072
0.084
0.083
0.063
0.041
0.019
0.014
-0.032
-0.067
-0.082
-0.089
-0.117
-0.106
-0.104
-0.105
-0.107
-0.083
-0.105
-0.099
-0.097
-0.087
-0.093
-0.085
-0.078
-0.07
-0.085
-0.07
-0.071
-0.074
-0.038
0.044
0.126
0.292
0.443
0.553
0.71
0.664
0.275
-0.177
-0.699
-1.057
-1.105
-0.97
-0.792
-0.623
-0.379
-0.142
0.028
0.106
0.144
0.161
0.156
0.18
0.204
0.199
0.206
0.223
0.229
0.219
0.247
0.241
0.259
0.258
0.242
0.268
0.283
0.282
0.285
0.296
0.29
0.292
0.305
0.31
0.316
0.323
0.327
0.322
0.331
0.334
0.331
0.317
0.332
0.328
0.321
0.303
0.286
0.268
0.243
0.248
0.225
0.211
0.188
0.162
0.156
0.136
0.118
0.09
0.056
0.03
0.013
-0.016
-0.049
-0.071
-0.097
-0.102
-0.131
-0.158
-0.18
-0.19
-0.199
-0.201
-0.219
-0.218
-0.216
-0.211
-0.214
-0.216
-0.206
-0.183
-0.18
-0.191
-0.154
-0.157
-0.168
-0.145
-0.132
-0.126
-0.131
-0.13
-0.133
-0.113
-0.124
-0.108
-0.106
-0.104
-0.107
-0.119
-0.116
-0.108
-0.107
-0.113
-0.114
-0.113
-0.114
-0.114
-0.118
-0.121
-0.115
-0.128
-0.111
-0.077
-0.062
-0.036
-0.045
-0.001
0.034
0.038
0.018
0.052
0.048
0.035
0.034
-0.005
-0.035
-0.067
-0.091
-0.108
-0.118
-0.133
-0.137
-0.138
-0.14
-0.14
-0.14
-0.14
-0.143
-0.159
-0.137
-0.124
-0.126
-0.104
-0.108
-0.105
-0.103
-0.092
-0.115
-0.077
0.015
0.101
0.221
0.406
0.508
0.669
0.677
0.336
-0.085
-0.566
-1.011
-1.083
-1.005
-0.866
-0.739
-0.538
-0.282
-0.106
0.023
0.093
0.11
0.144
0.163
0.163
0.169
0.182
0.201
0.193
0.185
0.215
0.213
0.22
0.228
0.234
0.234
0.245
0.253
0.252
0.251
0.265
0.266
0.277
0.263
0.278
0.308
0.32
0.326
0.31
0.328
0.325
0.327
0.327
0.316
0.315
0.307
0.295
0.267
0.261
0.23
0.231
0.204
0.183
0.159
0.149
0.137
0.128
0.083
0.047
0.022
0.002
-0.014
-0.059
-0.077
-0.097
-0.129
-0.134
-0.149
-0.166
-0.188
-0.195
-0.211
-0.222
-0.221
-0.219
-0.216
-0.221
-0.219
-0.216
-0.206
-0.194
-0.177
-0.17
-0.166
-0.172
-0.148
-0.162
-0.128
-0.126
-0.132
-0.118
-0.106
-0.103
-0.116
-0.115
-0.089
-0.09
-0.093
-0.089
-0.097
-0.09
-0.089
-0.086
-0.09
-0.096
-0.095
-0.082
-0.089
-0.068
-0.049
-0.011
-0.008
-0.004
0.025
0.056
0.072
0.077
0.072
0.056
0.051
0.029
0.008
-0.025
-0.053
-0.079
-0.107
-0.106
-0.116
-0.118
-0.121
-0.129
-0.124
-0.126
-0.121
-0.123
-0.123
-0.119
-0.118
-0.1
-0.095
-0.091
-0.094
-0.095
-0.086
-0.097
-0.061
0.065
0.153
0.326
0.481
0.576
0.722
0.639
0.199
-0.219
-0.743
-1.065
-1.1
-1
-0.85
-0.701
-0.459
-0.21
-0.024
0.072
0.126
0.153
0.177
0.185
0.183
0.208
0.218
0.224
0.231
0.244
0.243
0.262
0.262
0.273
0.255
0.28
0.292
0.28
0.295
0.3
0.315
0.319
0.318
0.318
0.328
0.344
0.341
0.343
0.352
0.349
0.351
0.358
0.355
0.349
0.349
0.323
0.293
0.298
0.284
0.261
0.242
0.222
0.191
0.185
0.136
0.144
0.114
0.097
0.06
0.033
0.007
-0.015
-0.045
-0.076
-0.092
-0.118
-0.139
-0.148
-0.162
-0.183
-0.197
-0.203
-0.199
-0.21
-0.209
-0.208
-0.209
-0.199
-0.196
-0.193
-0.172
-0.159
-0.15
-0.161
-0.141
-0.13
-0.126
-0.118
-0.11
-0.105
-0.102
-0.094
-0.088
-0.089
-0.083
-0.084
-0.078
-0.086
-0.086
-0.087
-0.086
-0.097
-0.085
-0.088
-0.089
-0.086
-0.097
-0.099
-0.096
-0.091
-0.069
-0.035
-0.002
-0.006
0.02
0.055
0.077
0.073
0.074
0.067
0.047
0.05
0.019
-0.013
-0.035
-0.075
-0.077
-0.1
-0.123
-0.118
-0.125
-0.133
-0.124
-0.124
-0.122
-0.115
-0.12
-0.131
-0.11
-0.103
-0.113
-0.088
-0.108
-0.066
-0.073
-0.085
-0.072
-0.011
0.101
0.17
0.356
0.475
0.596
0.693
0.536
0.048
-0.416
-0.97
-1.198
-1.197
-1.029
-0.844
-0.623
-0.338
-0.101
0.033
0.104
0.141
0.178
0.185
0.198
0.2
0.214
0.207
0.218
0.242
0.242
0.24
0.251
0.26
0.265
0.249
0.272
0.289
0.286
0.278
0.31
0.304
0.3
0.311
0.319
0.329
0.329
0.33
0.314
0.335
0.345
0.333
0.33
0.325
0.33
0.314
0.299
0.293
0.265
0.247
0.234
0.209
0.199
0.175
0.158
0.126
0.117
0.085
0.052
0.04
0.011
-0.008
-0.048
-0.081
-0.088
-0.111
-0.143
-0.141
-0.169
-0.191
-0.199
-0.206
-0.225
-0.23
-0.224
-0.232
-0.222
-0.226
-0.21
-0.209
-0.191
-0.178
-0.188
-0.191
-0.166
-0.166
-0.141
-0.141
-0.126
-0.123
-0.131
-0.109
-0.126
-0.105
-0.099
-0.097
-0.112
-0.099
-0.094
-0.096
-0.103
-0.11
-0.094
-0.104
-0.106
-0.102
-0.103
-0.124
-0.109
-0.108
-0.105
-0.099
-0.105
-0.114
-0.112
-0.098
-0.102
-0.072
-0.031
-0.01
-0.003
-0.005
0.006
0.056
0.072
0.076
0.074
0.037
0.06
0.033
0.013
-0.017
-0.034
-0.063
-0.083
-0.102
-0.111
-0.113
-0.107
-0.111
-0.115
-0.108
-0.108
-0.102
-0.105
-0.093
-0.09
-0.097
-0.074
-0.074
-0.077
-0.051
-0.067
-0.084
-0.063
0.035
0.146
0.269
0.44
0.539
0.674
0.671
0.353
-0.137
-0.635
-1.077
-1.174
-1.082
-0.891
-0.701
-0.435
-0.171
0.002
0.099
0.145
0.164
0.184
0.207
0.207
0.205
0.21
0.233
0.245
0.232
0.251
0.239
0.269
0.27
0.266
0.267
0.282
0.295
0.292
0.296
0.309
0.312
0.31
0.308
0.32
0.336
0.33
0.334
0.343
0.355
0.347
0.335
0.343
0.332
0.311
0.307
0.288
0.251
0.242
0.258
0.228
0.209
0.179
0.162
0.144
0.117
0.098
0.061
0.046
0.026
0.012
-0.016
-0.038
-0.073
-0.089
-0.126
-0.133
-0.162
-0.173
-0.172
-0.202
-0.214
-0.208
-0.207
-0.215
-0.217
-0.239
-0.201
-0.203
-0.202
-0.173
-0.163
-0.162
-0.162
-0.155
-0.135
-0.129
-0.142
-0.121
-0.109
-0.122
-0.106
-0.107
-0.108
-0.102
-0.1
-0.089
-0.099
-0.094
-0.087
-0.092
-0.112
-0.1
-0.082
-0.091
-0.108
-0.094
-0.089
-0.096
-0.101
-0.091
-0.101
-0.089
-0.087
-0.1
-0.091
-0.09
-0.099
-0.1
-0.093
-0.08
-0.08
-0.095
-0.073
-0.069
-0.065
-0.073
-0.058
-0.021
0.007
0.019
0.025
0.037
0.035
0.046
0.098
0.085
0.09
0.108
0.093
0.064
0.055
0.018
0.021
-0.006
-0.045
-0.072
-0.07
-0.078
-0.081
-0.081
-0.089
-0.098
-0.092
-0.08
-0.079
-0.086
-0.079
-0.077
-0.075
-0.057
-0.065
-0.067
-0.054
-0.046
-0.062
-0.014
0.089
0.154
0.338
0.488
0.606
0.708
0.656
0.241
-0.223
-0.749
-1.048
-1.079
-0.939
-0.784
-0.582
-0.322
-0.088
0.063
0.118
0.17
0.193
0.197
0.207
0.229
0.227
0.225
0.231
0.241
0.24
0.243
0.261
0.259
0.259
0.262
0.272
0.278
0.264
0.284
0.277
0.302
0.306
0.306
0.302
0.312
0.322
0.32
0.31
0.333
0.327
0.325
0.331
0.325
0.315
0.321
0.299
0.291
0.275
0.263
0.239
0.205
0.198
0.179
0.154
0.122
0.107
0.103
0.07
0.053
0.033
0.003
-0.025
-0.046
-0.067
-0.099
-0.106
-0.138
-0.159
-0.179
-0.186
-0.212
-0.212
-0.22
-0.214
-0.22
-0.227
-0.238
-0.229
-0.208
-0.206
-0.205
-0.201
-0.199
-0.185
-0.187
-0.16
-0.152
-0.157
-0.146
-0.136
-0.139
-0.143
-0.131
-0.129
-0.124
-0.121
-0.113
-0.108
-0.123
-0.116
-0.121
-0.109
-0.122
-0.125
-0.116
-0.133
-0.128
-0.114
-0.119
-0.118
-0.119
-0.118
-0.128
-0.107
-0.108
-0.114
-0.113
-0.109
-0.103
-0.098
-0.1
-0.107
-0.09
-0.086
-0.083
-0.078
-0.09
-0.076
-0.08
-0.077
-0.079
-0.073
-0.069
-0.065
-0.063
-0.067
-0.054
-0.03
-0.019
0.007
0.019
0.038
0.046
0.043
0.031
0.059
0.093
0.108
0.098
0.099
0.085
0.057
0.034
0.031
0.036
-0.002
-0.026
-0.031
-0.035
-0.044
-0.066
-0.051
-0.062
-0.052
-0.067
-0.059
-0.05
-0.052
-0.048
-0.043
-0.036
-0.044
-0.042
-0.026
-0.045
-0.045
-0.014
0.092
0.181
0.343
0.476
0.598
0.727
0.653
0.243
-0.225
-0.724
-1.054
-1.09
-0.946
-0.779
-0.607
-0.339
-0.117
0.027
0.102
0.153
0.165
0.182
0.196
0.173
0.221
0.222
0.248
0.245
0.237
0.234
0.262
0.262
0.263
0.267
0.256
0.275
0.278
0.272
0.282
0.291
0.295
0.299
0.299
0.311
0.308
0.314
0.304
0.308
0.329
0.317
0.325
0.327
0.326
0.286
0.291
0.292
0.278
0.257
0.238
0.213
0.201
0.181
0.157
0.132
0.125
0.096
0.072
0.057
0.033
0.018
-0.024
-0.044
-0.063
-0.079
-0.106
-0.135
-0.167
-0.153
-0.175
-0.2
-0.217
-0.22
-0.235
-0.228
-0.231
-0.233
-0.235
-0.231
-0.221
-0.22
-0.21
-0.2
-0.204
-0.194
-0.187
-0.182
-0.178
-0.168
-0.172
-0.154
-0.143
-0.144
-0.145
-0.154
-0.134
-0.134
-0.128
-0.128
-0.123
-0.126
-0.128
-0.131
-0.134
-0.123
-0.124
-0.122
-0.117
-0.126
-0.135
-0.111
-0.11
-0.11
-0.107
-0.115
-0.12
-0.092
-0.101
-0.092
-0.098
-0.094
-0.085
-0.087
-0.037
-0.023
-0.001
0.005
0.033
0.069
0.068
0.079
0.066
0.087
0.086
0.062
0.035
0.006
-0.024
-0.04
-0.049
-0.07
-0.086
-0.092
-0.095
-0.083
-0.086
-0.083
-0.079
-0.083
-0.103
-0.079
-0.071
-0.067
-0.063
-0.064
-0.06
-0.061
-0.065
-0.056
-0.013
0.092
0.177
0.339
0.496
0.619
0.781
0.64
0.187
-0.224
-0.766
-1.012
-0.994
-0.898
-0.755
-0.624
-0.399
-0.169
0.007
0.09
0.147
0.171
0.182
0.207
0.214
0.221
0.217
0.227
0.239
0.233
0.241
0.245
0.241
0.242
0.254
0.261
0.266
0.269
0.269
0.282
0.301
0.301
0.298
0.3
0.31
0.321
0.317
0.322
0.328
0.344
0.334
0.331
0.325
0.327
0.305
0.309
0.294
0.282
0.258
0.242
0.221
0.211
0.19
0.14
0.148
0.11
0.096
0.07
0.041
0.033
0.002
-0.013
-0.046
-0.074
-0.092
-0.11
-0.138
-0.156
-0.17
-0.176
-0.191
-0.202
-0.191
-0.204
-0.201
-0.201
-0.205
-0.198
-0.19
-0.186
-0.187
-0.178
-0.16
-0.16
-0.16
-0.157
-0.159
-0.131
-0.138
-0.128
-0.104
-0.102
-0.089
-0.098
-0.104
-0.093
-0.099
-0.092
-0.093
-0.088
-0.092
-0.105
-0.082
-0.084
-0.094
-0.079
-0.076
-0.056
-0.022
-0.007
-0.013
-0.004
0.051
0.062
0.065
0.084
0.064
0.059
0.03
0.03
0.005
-0.039
-0.068
-0.08
-0.102
-0.11
-0.115
-0.13
-0.115
-0.122
-0.121
-0.116
-0.112
-0.109
-0.119
-0.111
-0.111
-0.109
-0.106
-0.106
-0.082
-0.093
-0.084
-0.08
-0.033
0.071
0.154
0.322
0.471
0.595
0.721
0.585
0.141
-0.27
-0.818
-1.099
-1.07
-0.976
-0.826
-0.665
-0.419
-0.187
-0.01
0.071
0.122
0.139
0.163
0.179
0.19
0.198
0.195
0.191
0.219
0.233
0.222
0.218
0.228
0.243
0.237
0.254
0.26
0.26
0.261
0.271
0.277
0.284
0.285
0.275
0.308
0.314
0.304
0.322
0.336
0.344
0.324
0.334
0.334
0.328
0.324
0.311
0.283
0.273
0.27
0.246
0.227
0.198
0.179
0.172
0.142
0.117
0.088
0.062
0.037
0.003
-0.023
-0.04
-0.067
-0.092
-0.111
-0.135
-0.149
-0.171
-0.19
-0.217
-0.2
-0.214
-0.224
-0.227
-0.212
-0.218
-0.214
-0.213
-0.219
-0.201
-0.198
-0.189
-0.179
-0.169
-0.167
-0.172
-0.148
-0.143
-0.143
-0.126
-0.121
-0.123
-0.124
-0.112
-0.104
-0.111
-0.107
-0.108
-0.101
-0.116
-0.117
-0.11
-0.097
-0.098
-0.081
-0.041
-0.028
-0.009
0.005
0.025
0.065
0.061
0.073
0.06
0.031
0.017
-0.002
-0.028
-0.067
-0.1
-0.115
-0.145
-0.133
-0.138
-0.148
-0.148
-0.149
-0.145
-0.139
-0.145
-0.148
-0.141
-0.142
-0.128
-0.125
-0.128
-0.124
-0.12
-0.108
-0.128
-0.079
-0.041
0.064
0.147
0.332
0.447
0.563
0.687
0.527
0.039
-0.43
-0.94
-1.188
-1.182
-1.026
-0.842
-0.643
-0.347
-0.111
0.015
0.085
0.117
0.137
0.164
0.168
0.186
0.168
0.217
0.204
0.215
0.227
0.237
0.235
0.248
0.254
0.258
0.259
0.269
0.26
0.286
0.29
0.299
0.298
0.303
0.309
0.321
0.323
0.333
0.338
0.342
0.347
0.341
0.344
0.33
0.334
0.312
0.293
0.305
0.29
0.268
0.24
0.206
0.218
0.185
0.16
0.135
0.116
0.096
0.05
0.038
0.027
-0.01
-0.043
-0.061
-0.089
-0.104
-0.126
-0.133
-0.153
-0.174
-0.185
-0.188
-0.199
-0.212
-0.212
-0.2
-0.207
-0.193
-0.167
-0.173
-0.166
-0.159
-0.161
-0.163
-0.143
-0.123
-0.123
-0.145
-0.108
-0.106
-0.106
-0.095
-0.095
-0.086
-0.095
-0.088
-0.087
-0.096
-0.092
-0.086
-0.087
-0.102
-0.118
-0.092
-0.074
-0.07
-0.067
-0.046
-0.018
-0.009
0.005
0.03
0.063
0.068
0.073
0.067
0.063
0.029
0.017
0.001
-0.036
-0.05
-0.072
-0.086
-0.109
-0.117
-0.116
-0.118
-0.128
-0.126
-0.142
-0.121
-0.113
-0.129
-0.125
-0.105
-0.107
-0.109
-0.095
-0.092
-0.088
-0.093
-0.099
-0.075
-0.015
0.084
0.192
0.363
0.492
0.603
0.681
0.495
0.001
-0.495
-0.993
-1.171
-1.121
-0.951
-0.767
-0.507
-0.238
-0.037
0.062
0.108
0.137
0.148
0.17
0.183
0.185
0.198
0.201
0.216
0.222
0.222
0.23
0.247
0.251
0.237
0.255
0.268
0.274
0.275
0.274
0.284
0.302
0.284
0.282
0.322
0.321
0.317
0.335
0.337
0.336
0.344
0.335
0.327
0.324
0.312
0.298
0.291
0.277
0.246
0.237
0.217
0.179
0.172
0.158
0.133
0.108
0.083
0.053
0.03
0.01
0.006
-0.023
-0.049
-0.076
-0.108
-0.121
-0.138
-0.156
-0.176
-0.186
-0.197
-0.21
-0.214
-0.206
-0.215
-0.205
-0.197
-0.207
-0.182
-0.182
-0.162
-0.161
-0.156
-0.156
-0.137
-0.142
-0.125
-0.128
-0.113
-0.106
-0.105
-0.102
-0.112
-0.092
-0.086
-0.09
-0.081
-0.085
-0.084
-0.085
-0.092
-0.088
-0.089
-0.085
-0.091
-0.102
-0.086
-0.094
-0.099
-0.087
-0.075
-0.083
-0.09
-0.084
-0.074
-0.069
-0.067
-0.026
0.001
0.015
0.022
0.069
0.084
0.09
0.096
0.094
0.075
0.077
0.055
0.008
0.004
-0.034
-0.071
-0.069
-0.091
-0.092
-0.097
-0.101
-0.112
-0.105
-0.106
-0.099
-0.094
-0.098
-0.093
-0.081
-0.078
-0.087
-0.068
-0.058
-0.048
-0.053
-0.066
-0.047
0.048
0.121
0.275
0.437
0.546
0.693
0.695
0.323
-0.139
-0.643
-1.051
-1.117
-1.024
-0.839
-0.642
-0.399
-0.165
0.013
0.097
0.124
0.168
0.165
0.191
0.191
0.193
0.201
0.215
0.22
0.218
0.221
0.24
0.244
0.258
0.251
0.251
0.272
0.274
0.279
0.283
0.296
0.306
0.291
0.303
0.289
0.32
0.298
0.316
0.336
0.335
0.322
0.317
0.323
0.31
0.293
0.271
0.269
0.245
0.238
0.209
0.182
0.175
0.164
0.138
0.114
0.095
0.084
0.054
0.031
0.004
-0.029
-0.037
-0.063
-0.098
-0.102
-0.124
-0.157
-0.182
-0.185
-0.194
-0.2
-0.206
-0.21
-0.219
-0.229
-0.22
-0.209
-0.205
-0.21
-0.191
-0.186
-0.181
-0.167
-0.165
-0.158
-0.159
-0.148
-0.136
-0.141
-0.128
-0.121
-0.126
-0.123
-0.125
-0.121
-0.127
-0.111
-0.11
-0.139
-0.106
-0.114
-0.125
-0.099
-0.102
-0.108
-0.107
-0.117
-0.108
-0.112
-0.112
-0.096
-0.092
-0.105
-0.097
-0.107
-0.121
-0.094
-0.088
-0.081
-0.061
-0.03
-0.025
0.004
0.044
0.064
0.057
0.072
0.077
0.059
0.061
0.031
0.023
-0.015
-0.043
-0.069
-0.082
-0.1
-0.104
-0.1
-0.101
-0.113
-0.111
-0.119
-0.1
-0.099
-0.085
-0.089
-0.104
-0.073
-0.077
-0.068
-0.063
-0.077
-0.059
-0.073
-0.045
0.049
0.133
0.284
0.444
0.559
0.72
0.676
0.287
-0.154
-0.672
-1.043
-1.083
-0.96
-0.793
-0.637
-0.41
-0.153
0.019
0.089
0.138
0.165
0.175
0.185
0.192
0.214
0.221
0.219
0.241
0.24
0.238
0.244
0.267
0.266
0.273
0.281
0.293
0.292
0.294
0.306
0.309
0.307
0.297
0.299
0.308
0.321
0.318
0.342
0.34
0.343
0.334
0.339
0.336
0.335
0.321
0.307
0.291
0.263
0.247
0.234
0.22
0.188
0.183
0.158
0.138
0.113
0.095
0.06
0.024
0.039
0.006
-0.007
-0.034
-0.045
-0.076
-0.094
-0.112
-0.138
-0.155
-0.163
-0.176
-0.191
-0.184
-0.182
-0.181
-0.185
-0.182
-0.179
-0.164
-0.157
-0.154
-0.167
-0.122
-0.139
-0.123
-0.129
-0.103
-0.116
-0.126
-0.101
-0.102
-0.109
-0.103
-0.112
-0.126
-0.117
-0.093
-0.11
-0.112
-0.094
-0.132
-0.091
-0.091
-0.105
-0.087
-0.099
-0.122
-0.092
-0.09
-0.042
-0.011
0.002
0.015
0.034
0.059
0.067
0.073
0.061
0.029
0.028
0.002
-0.026
-0.061
-0.097
-0.113
-0.154
-0.129
-0.127
-0.129
-0.137
-0.15
-0.136
-0.128
-0.125
-0.137
-0.14
-0.112
-0.111
-0.112
-0.105
-0.097
-0.087
-0.094
-0.111
-0.088
-0.019
0.085
0.182
0.348
0.486
0.592
0.722
0.513
0.085
-0.331
-0.871
-1.089
-1.054
-0.952
-0.813
-0.649
-0.406
-0.184
0.002
0.079
0.141
0.157
0.162
0.192
0.186
0.19
0.21
0.217
0.203
0.214
0.23
0.224
0.243
0.248
0.229
0.25
0.267
0.26
0.269
0.271
0.278
0.304
0.301
0.297
0.307
0.346
0.341
0.306
0.299
0.31
0.324
0.324
0.31
0.293
0.31
0.295
0.274
0.25
0.233
0.209
0.186
0.177
0.157
0.123
0.093
0.083
0.075
0.042
0.012
-0.015
-0.034
-0.062
-0.079
-0.115
-0.146
-0.137
-0.152
-0.167
-0.19
-0.202
-0.234
-0.219
-0.21
-0.214
-0.217
-0.228
-0.219
-0.2
-0.186
-0.181
-0.182
-0.166
-0.161
-0.148
-0.147
-0.142
-0.138
-0.136
-0.114
-0.113
-0.108
-0.118
-0.107
-0.099
-0.095
-0.102
-0.096
-0.078
-0.086
-0.083
-0.086
-0.095
-0.105
-0.072
-0.057
-0.031
-0.013
-0.017
0.003
0.021
0.062
0.092
0.073
0.076
0.074
0.06
0.017
0.011
-0.026
-0.061
-0.075
-0.091
-0.107
-0.116
-0.121
-0.133
-0.136
-0.138
-0.133
-0.119
-0.128
-0.117
-0.118
-0.119
-0.108
-0.109
-0.103
-0.087
-0.075
-0.096
-0.07
-0.063
0.012
0.121
0.215
0.411
0.515
0.612
0.698
0.479
0.014
-0.435
-0.969
-1.172
-1.154
-1.014
-0.842
-0.635
-0.349
-0.115
0.034
0.119
0.158
0.181
0.198
0.214
0.223
0.223
0.231
0.247
0.259
0.252
0.23
0.261
0.281
0.267
0.267
0.29
0.286
0.291
0.284
0.304
0.305
0.313
0.319
0.32
0.327
0.341
0.352
0.347
0.35
0.346
0.348
0.348
0.347
0.329
0.317
0.289
0.278
0.261
0.232
0.191
0.205
0.182
0.143
0.148
0.118
0.091
0.068
0.04
0.007
-0.025
-0.036
-0.048
-0.075
-0.105
-0.122
-0.143
-0.154
-0.174
-0.191
-0.197
-0.204
-0.215
-0.225
-0.21
-0.226
-0.211
-0.198
-0.192
-0.186
-0.173
-0.175
-0.165
-0.148
-0.144
-0.129
-0.124
-0.114
-0.117
-0.104
-0.104
-0.09
-0.088
-0.081
-0.083
-0.092
-0.089
-0.091
-0.08
-0.089
-0.063
-0.068
-0.048
-0.026
-0.005
0.003
0.003
0.037
0.062
0.054
0.069
0.077
0.055
0.031
0.022
-0.013
-0.037
-0.077
-0.09
-0.103
-0.125
-0.141
-0.149
-0.142
-0.157
-0.134
-0.143
-0.139
-0.137
-0.135
-0.135
-0.133
-0.155
-0.12
-0.107
-0.099
-0.091
-0.103
-0.113
-0.109
-0.046
0.079
0.157
0.334
0.47
0.553
0.688
0.55
0.096
-0.378
-0.925
-1.231
-1.256
-1.082
-0.883
-0.657
-0.376
-0.118
0.037
0.106
0.146
0.166
0.188
0.195
0.195
0.215
0.218
0.213
0.238
0.237
0.224
0.257
0.264
0.258
0.266
0.283
0.275
0.278
0.283
0.294
0.306
0.305
0.306
0.313
0.332
0.323
0.331
0.346
0.354
0.355
0.35
0.344
0.318
0.319
0.331
0.312
0.299
0.273
0.255
0.23
0.212
0.18
0.168
0.14
0.102
0.098
0.066
0.038
0.01
-0.003
-0.035
-0.07
-0.091
-0.106
-0.138
-0.167
-0.164
-0.189
-0.202
-0.216
-0.237
-0.227
-0.226
-0.217
-0.225
-0.21
-0.221
-0.197
-0.19
-0.183
-0.178
-0.176
-0.173
-0.152
-0.154
-0.142
-0.135
-0.136
-0.137
-0.114
-0.121
-0.123
-0.112
-0.115
-0.116
-0.103
-0.1
-0.107
-0.122
-0.106
-0.115
-0.111
-0.11
-0.099
-0.104
-0.105
-0.091
-0.1
-0.093
-0.096
-0.081
-0.055
-0.017
-0.005
0.002
0.011
0.043
0.077
0.069
0.079
0.073
0.045
0.055
0.019
-0.008
-0.039
-0.077
-0.078
-0.098
-0.105
-0.113
-0.123
-0.124
-0.127
-0.134
-0.124
-0.131
-0.122
-0.109
-0.111
-0.104
-0.099
-0.105
-0.088
-0.092
-0.092
-0.092
-0.092
-0.056
0.055
0.134
0.32
0.46
0.553
0.67
0.595
0.174
-0.288
-0.818
-1.155
-1.204
-1.048
-0.868
-0.657
-0.4
-0.126
0.016
0.101
0.136
0.161
0.187
0.197
0.199
0.193
0.218
0.215
0.235
0.247
0.239
0.242
0.265
0.26
0.27
0.273
0.291
0.282
0.286
0.291
0.301
0.306
0.304
0.296
0.312
0.326
0.322
0.328
0.333
0.328
0.326
0.326
0.335
0.325
0.303
0.303
0.265
0.25
0.226
0.225
0.206
0.184
0.166
0.14
0.107
0.081
0.084
0.033
0.023
-0.016
-0.027
-0.056
-0.085
-0.112
-0.133
-0.138
-0.162
-0.171
-0.189
-0.197
-0.223
-0.218
-0.234
-0.216
-0.235
-0.206
-0.2
-0.207
-0.187
-0.189
-0.193
-0.184
-0.169
-0.179
-0.157
-0.156
-0.145
-0.133
-0.136
-0.124
-0.117
-0.124
-0.1
-0.101
-0.103
-0.102
-0.093
-0.112
-0.096
-0.095
-0.106
-0.111
-0.111
-0.107
-0.108
-0.12
-0.094
-0.102
-0.102
-0.098
-0.104
-0.126
-0.098
-0.102
-0.103
-0.105
-0.099
-0.104
-0.092
-0.089
-0.094
-0.088
-0.085
-0.08
-0.073
-0.078
-0.078
-0.057
-0.054
-0.038
-0.03
-0.003
0.023
0.032
0.043
0.049
0.043
0.054
0.05
0.062
0.102
0.089
0.078
0.049
0.025
0.024
0.008
-0.001
-0.043
-0.049
-0.034
-0.046
-0.063
-0.068
-0.086
-0.058
-0.057
-0.055
-0.057
-0.044
-0.045
-0.038
-0.035
-0.014
-0.016
-0.022
-0.01
-0.019
-0.021
0.005
0.132
0.197
0.382
0.517
0.626
0.745
0.679
0.28
-0.185
-0.708
-1.045
-1.071
-0.946
-0.77
-0.589
-0.31
-0.059
0.079
0.164
0.19
0.204
0.221
0.243
0.249
0.259
0.258
0.259
0.281
0.275
0.275
0.276
0.299
0.288
0.291
0.291
0.305
0.305
0.299
0.305
0.304
0.316
0.321
0.325
0.336
0.335
0.325
0.317
0.337
0.337
0.328
0.332
0.327
0.315
0.298
0.296
0.275
0.254
0.243
0.222
0.204
0.181
0.154
0.136
0.107
0.112
0.085
0.059
0.035
0.009
-0.016
-0.046
-0.063
-0.078
-0.1
-0.112
-0.133
-0.152
-0.169
-0.199
-0.225
-0.19
-0.213
-0.219
-0.21
-0.209
-0.206
-0.199
-0.188
-0.193
-0.19
-0.196
-0.17
-0.176
-0.171
-0.155
-0.137
-0.136
-0.142
-0.133
-0.128
-0.131
-0.126
-0.127
-0.119
-0.113
-0.109
-0.118
-0.117
-0.109
-0.116
-0.117
-0.096
-0.119
-0.107
-0.098
-0.109
-0.115
-0.1
-0.097
-0.102
-0.108
-0.097
-0.098
-0.106
-0.095
-0.089
-0.098
-0.092
-0.093
-0.081
-0.077
-0.073
-0.074
-0.073
-0.03
-0.003
0.006
0.028
0.022
0.043
0.084
0.101
0.102
0.092
0.071
0.065
0.041
0.021
0.001
-0.02
-0.045
-0.057
-0.084
-0.09
-0.077
-0.086
-0.1
-0.093
-0.101
-0.105
-0.09
-0.093
-0.089
-0.105
-0.077
-0.083
-0.093
-0.071
-0.063
-0.075
-0.077
-0.053
0.025
0.101
0.228
0.398
0.508
0.648
0.708
0.438
-0.032
-0.522
-0.995
-1.104
-1.057
-0.87
-0.699
-0.467
-0.208
-0.017
0.088
0.137
0.154
0.172
0.193
0.207
0.217
0.222
0.216
0.225
0.239
0.238
0.25
0.259
0.259
0.265
0.267
0.275
0.285
0.278
0.3
0.302
0.308
0.313
0.313
0.317
0.313
0.333
0.323
0.347
0.33
0.343
0.343
0.314
0.318
0.322
0.294
0.289
0.273
0.244
0.238
0.209
0.187
0.169
0.134
0.116
0.096
0.078
0.049
0.023
0.002
-0.014
-0.046
-0.068
-0.095
-0.116
-0.13
-0.154
-0.18
-0.188
-0.203
-0.235
-0.22
-0.239
-0.217
-0.227
-0.227
-0.225
-0.218
-0.217
-0.202
-0.203
-0.186
-0.179
-0.177
-0.183
-0.168
-0.164
-0.143
-0.146
-0.136
-0.135
-0.126
-0.116
-0.118
-0.115
-0.111
-0.125
-0.114
-0.103
-0.1
-0.093
-0.108
-0.111
-0.116
-0.098
-0.101
-0.124
-0.102
-0.104
-0.098
-0.101
-0.105
-0.103
-0.096
-0.091
-0.076
-0.069
-0.041
-0.017
-0.003
-0.007
0.011
0.042
0.058
0.09
0.086
0.072
0.047
0.027
0.024
0.003
-0.035
-0.054
-0.074
-0.094
-0.1
-0.104
-0.122
-0.127
-0.092
-0.097
-0.108
-0.102
-0.106
-0.106
-0.084
-0.091
-0.084
-0.078
-0.072
-0.056
-0.057
-0.066
-0.062
-0.035
0.072
0.137
0.32
0.481
0.593
0.748
0.668
0.252
-0.166
-0.707
-1.022
-1.034
-0.939
-0.774
-0.632
-0.393
-0.158
0.014
0.09
0.157
0.181
0.195
0.208
0.207
0.219
0.224
0.236
0.237
0.227
0.235
0.224
0.254
0.271
0.268
0.271
0.291
0.294
0.29
0.302
0.316
0.312
0.289
0.305
0.327
0.331
0.341
0.332
0.336
0.353
0.343
0.326
0.342
0.325
0.306
0.297
0.294
0.274
0.25
0.236
0.225
0.193
0.179
0.154
0.135
0.118
0.086
0.062
0.04
0.023
-0.001
-0.03
-0.061
-0.081
-0.106
-0.136
-0.144
-0.154
-0.169
-0.183
-0.202
-0.212
-0.218
-0.204
-0.204
-0.217
-0.231
-0.19
-0.197
-0.184
-0.182
-0.176
-0.178
-0.176
-0.152
-0.141
-0.116
-0.112
-0.113
-0.108
-0.095
-0.091
-0.098
-0.089
-0.091
-0.099
-0.095
-0.095
-0.084
-0.086
-0.075
-0.076
-0.064
-0.037
-0.022
-0.014
-0.018
0
0.044
0.054
0.053
0.059
0.079
0.055
0.035
0.004
-0.012
-0.046
-0.078
-0.096
-0.098
-0.132
-0.14
-0.124
-0.14
-0.137
-0.153
-0.133
-0.139
-0.125
-0.124
-0.128
-0.127
-0.132
-0.114
-0.109
-0.1
-0.082
-0.093
-0.104
-0.095
-0.042
0.088
0.183
0.368
0.485
0.603
0.719
0.516
0.06
-0.377
-0.893
-1.116
-1.09
-0.986
-0.84
-0.656
-0.4
-0.173
-0.02
0.086
0.123
0.145
0.14
0.172
0.193
0.191
0.188
0.204
0.225
0.229
0.226
0.235
0.238
0.237
0.244
0.257
0.258
0.262
0.27
0.282
0.288
0.294
0.298
0.296
0.307
0.323
0.323
0.331
0.328
0.331
0.336
0.33
0.335
0.314
0.29
0.285
0.291
0.26
0.23
0.204
0.176
0.173
0.159
0.133
0.104
0.066
0.048
0.028
-0.002
-0.023
-0.048
-0.072
-0.097
-0.113
-0.131
-0.151
-0.176
-0.181
-0.208
-0.195
-0.213
-0.204
-0.206
-0.201
-0.196
-0.209
-0.199
-0.191
-0.208
-0.186
-0.182
-0.177
-0.167
-0.159
-0.162
-0.146
-0.145
-0.127
-0.127
-0.142
-0.103
-0.103
-0.107
-0.105
-0.116
-0.108
-0.101
-0.103
-0.094
-0.092
-0.064
-0.049
-0.028
-0.018
-0.009
-0.004
0.048
0.066
0.055
0.061
0.048
0.021
-0.017
-0.032
-0.033
-0.072
-0.1
-0.117
-0.142
-0.143
-0.151
-0.137
-0.153
-0.143
-0.137
-0.145
-0.15
-0.138
-0.14
-0.141
-0.134
-0.145
-0.131
-0.111
-0.1
-0.111
-0.115
-0.118
-0.076
0.026
0.117
0.285
0.436
0.524
0.673
0.62
0.214
-0.246
-0.772
-1.164
-1.191
-1.082
-0.908
-0.732
-0.453
-0.169
0.001
0.096
0.143
0.167
0.176
0.197
0.205
0.202
0.227
0.236
0.238
0.245
0.26
0.26
0.269
0.271
0.273
0.268
0.287
0.291
0.299
0.312
0.313
0.309
0.326
0.332
0.331
0.325
0.335
0.351
0.347
0.356
0.352
0.345
0.33
0.336
0.316
0.317
0.291
0.279
0.257
0.238
0.212
0.188
0.167
0.138
0.116
0.091
0.049
0.051
0.009
-0.012
-0.039
-0.07
-0.092
-0.117
-0.143
-0.167
-0.18
-0.188
-0.214
-0.216
-0.226
-0.234
-0.239
-0.244
-0.243
-0.233
-0.24
-0.216
-0.21
-0.199
-0.192
-0.19
-0.182
-0.174
-0.172
-0.167
-0.14
-0.149
-0.128
-0.124
-0.124
-0.104
-0.109
-0.117
-0.109
-0.107
-0.108
-0.103
-0.104
-0.106
-0.111
-0.087
-0.075
-0.036
-0.026
-0.023
-0.038
0.008
0.032
0.047
0.062
0.07
0.038
0.026
-0.006
-0.034
-0.035
-0.076
-0.104
-0.12
-0.147
-0.147
-0.144
-0.15
-0.15
-0.15
-0.146
-0.151
-0.149
-0.146
-0.141
-0.118
-0.123
-0.12
-0.112
-0.104
-0.092
-0.105
-0.087
-0.095
-0.065
0.031
0.12
0.261
0.45
0.534
0.661
0.67
0.329
-0.168
-0.675
-1.107
-1.228
-1.113
-0.891
-0.705
-0.421
-0.139
0.027
0.098
0.161
0.19
0.205
0.224
0.237
0.236
0.236
0.255
0.259
0.265
0.271
0.286
0.279
0.287
0.284
0.297
0.321
0.315
0.321
0.331
0.337
0.336
0.342
0.346
0.37
0.375
0.365
0.373
0.381
0.378
0.377
0.365
0.369
0.364
0.341
0.332
0.318
0.302
0.278
0.226
0.226
0.23
0.194
0.168
0.144
0.121
0.071
0.072
0.034
0.012
-0.013
-0.045
-0.069
-0.093
-0.13
-0.136
-0.166
-0.182
-0.191
-0.193
-0.219
-0.212
-0.229
-0.212
-0.204
-0.201
-0.208
-0.204
-0.2
-0.197
-0.175
-0.177
-0.163
-0.161
-0.15
-0.155
-0.128
-0.133
-0.125
-0.112
-0.109
-0.108
-0.108
-0.112
-0.12
-0.094
-0.103
-0.105
-0.087
-0.101
-0.129
-0.093
-0.106
-0.103
-0.087
-0.094
-0.097
-0.098
-0.084
-0.086
-0.081
-0.065
-0.036
0.003
0.009
0.025
0.07
0.073
0.09
0.099
0.086
0.066
0.027
0.017
0.004
-0.037
-0.068
-0.079
-0.089
-0.111
-0.11
-0.125
-0.113
-0.124
-0.13
-0.097
-0.107
-0.11
-0.107
-0.105
-0.085
-0.087
-0.077
-0.069
-0.071
-0.069
-0.059
-0.086
-0.028
0.048
0.149
0.3
0.474
0.562
0.687
0.679
0.34
-0.133
-0.654
-1.068
-1.14
-1.032
-0.85
-0.657
-0.38
-0.129
0.044
0.11
0.177
0.194
0.206
0.22
0.216
0.227
0.254
0.257
0.264
0.254
0.237
0.277
0.277
0.279
0.282
0.289
0.29
0.308
0.3
0.288
0.302
0.319
0.323
0.322
0.332
0.339
0.347
0.335
0.336
0.347
0.323
0.326
0.326
0.321
0.324
0.305
0.274
0.259
0.232
0.217
0.189
0.171
0.157
0.128
0.085
0.07
0.068
0.032
0.005
-0.022
-0.056
-0.054
-0.097
-0.123
-0.16
-0.169
-0.182
-0.239
-0.224
-0.252
-0.247
-0.254
-0.264
-0.267
-0.256
-0.255
-0.25
-0.239
-0.237
-0.226
-0.22
-0.213
-0.207
-0.198
-0.189
-0.178
-0.162
-0.168
-0.16
-0.149
-0.138
-0.138
-0.141
-0.144
-0.14
-0.132
-0.132
-0.138
-0.138
-0.126
-0.126
-0.125
-0.115
-0.128
-0.125
-0.134
-0.113
-0.119
-0.119
-0.129
-0.128
-0.113
-0.124
-0.121
-0.121
-0.114
-0.121
-0.124
-0.116
-0.112
-0.109
-0.097
-0.088
-0.101
-0.091
-0.067
-0.062
-0.03
0.001
0.018
0.034
0.018
0.025
0.029
0.051
0.071
0.059
0.066
0.039
0.01
0.015
-0.001
-0.012
-0.042
-0.058
-0.069
-0.071
-0.084
-0.077
-0.087
-0.109
-0.1
-0.065
-0.07
-0.079
-0.073
-0.087
-0.051
-0.059
-0.043
-0.05
-0.035
-0.044
-0.041
-0.037
0.012
0.107
0.179
0.358
0.49
0.588
0.712
0.66
0.261
-0.211
-0.73
-1.037
-1.105
-0.965
-0.778
-0.576
-0.29
-0.053
0.069
0.149
0.176
0.218
0.225
0.232
0.239
0.246
0.241
0.262
0.275
0.272
0.275
0.287
0.288
0.283
0.285
0.295
0.312
0.311
0.312
0.314
0.314
0.32
0.332
0.324
0.341
0.349
0.334
0.335
0.357
0.357
0.347
0.342
0.343
0.32
0.315
0.307
0.268
0.274
0.248
0.226
0.201
0.194
0.164
0.142
0.125
0.107
0.074
0.057
0.045
0.007
-0.01
-0.036
-0.06
-0.083
-0.115
-0.129
-0.171
-0.157
-0.173
-0.186
-0.2
-0.214
-0.204
-0.209
-0.211
-0.203
-0.204
-0.212
-0.194
-0.187
-0.197
-0.165
-0.156
-0.158
-0.152
-0.156
-0.133
-0.133
-0.136
-0.131
-0.136
-0.115
-0.118
-0.128
-0.125
-0.12
-0.131
-0.105
-0.118
-0.115
-0.12
-0.131
-0.117
-0.12
-0.13
-0.132
-0.129
-0.148
-0.119
-0.111
-0.123
-0.116
-0.135
-0.101
-0.102
-0.097
-0.087
-0.064
-0.036
-0.015
-0.017
-0.032
0.019
0.064
0.077
0.079
0.061
0.044
0.046
0.028
0.005
-0.019
-0.048
-0.07
-0.088
-0.103
-0.123
-0.107
-0.108
-0.108
-0.108
-0.102
-0.1
-0.108
-0.098
-0.111
-0.096
-0.088
-0.084
-0.061
-0.059
-0.058
-0.073
-0.076
-0.055
0.026
0.124
0.222
0.407
0.518
0.658
0.744
0.492
0.046
-0.439
-0.929
-1.048
-0.993
-0.864
-0.714
-0.521
-0.267
-0.066
0.068
0.134
0.18
0.191
0.206
0.2
0.222
0.234
0.238
0.266
0.266
0.258
0.267
0.278
0.28
0.285
0.281
0.291
0.297
0.311
0.311
0.315
0.333
0.333
0.331
0.322
0.351
0.362
0.347
0.352
0.367
0.35
0.342
0.352
0.342
0.326
0.306
0.292
0.273
0.261
0.238
0.219
0.197
0.179
0.156
0.121
0.115
0.081
0.053
0.03
0.011
-0.009
-0.035
-0.055
-0.081
-0.105
-0.13
-0.149
-0.18
-0.179
-0.187
-0.193
-0.21
-0.222
-0.216
-0.236
-0.22
-0.223
-0.229
-0.215
-0.197
-0.19
-0.192
-0.178
-0.16
-0.153
-0.143
-0.144
-0.127
-0.13
-0.111
-0.118
-0.104
-0.102
-0.101
-0.102
-0.104
-0.077
-0.094
-0.103
-0.074
-0.071
-0.082
-0.08
-0.078
-0.093
-0.099
-0.087
-0.085
-0.07
-0.031
-0.032
-0.016
-0.023
-0.013
0.033
0.049
0.06
0.067
0.041
0.025
0.045
-0.001
-0.023
-0.045
-0.073
-0.095
-0.098
-0.116
-0.131
-0.125
-0.12
-0.126
-0.125
-0.121
-0.145
-0.121
-0.118
-0.104
-0.107
-0.112
-0.114
-0.087
-0.087
-0.087
-0.093
-0.101
-0.063
0.026
0.141
0.274
0.443
0.543
0.659
0.682
0.319
-0.124
-0.61
-1.045
-1.135
-1.059
-0.918
-0.758
-0.528
-0.266
-0.061
0.05
0.111
0.163
0.164
0.188
0.21
0.218
0.213
0.223
0.23
0.243
0.243
0.246
0.239
0.262
0.255
0.268
0.274
0.283
0.282
0.268
0.299
0.309
0.303
0.311
0.308
0.328
0.332
0.33
0.351
0.349
0.353
0.354
0.338
0.329
0.332
0.31
0.294
0.263
0.263
0.231
0.202
0.179
0.167
0.14
0.112
0.096
0.068
0.024
0.023
-0.016
-0.038
-0.063
-0.097
-0.116
-0.138
-0.156
-0.183
-0.181
-0.194
-0.207
-0.223
-0.219
-0.228
-0.236
-0.234
-0.242
-0.241
-0.242
-0.217
-0.222
-0.213
-0.201
-0.19
-0.187
-0.188
-0.175
-0.152
-0.15
-0.154
-0.127
-0.13
-0.122
-0.123
-0.12
-0.116
-0.11
-0.106
-0.108
-0.103
-0.105
-0.106
-0.113
-0.116
-0.107
-0.105
-0.104
-0.103
-0.081
-0.057
-0.027
-0.013
-0.007
-0.029
0.019
0.056
0.072
0.079
0.067
0.038
0.014
-0.021
-0.027
-0.057
-0.089
-0.12
-0.114
-0.132
-0.136
-0.134
-0.137
-0.138
-0.133
-0.139
-0.132
-0.141
-0.133
-0.123
-0.118
-0.112
-0.105
-0.11
-0.101
-0.096
-0.106
-0.105
-0.064
0.026
0.132
0.266
0.426
0.531
0.656
0.65
0.274
-0.204
-0.683
-1.135
-1.215
-1.104
-0.919
-0.738
-0.457
-0.18
-0.005
0.094
0.155
0.179
0.202
0.217
0.228
0.243
0.231
0.239
0.242
0.25
0.249
0.256
0.257
0.27
0.278
0.277
0.279
0.282
0.288
0.288
0.307
0.302
0.327
0.323
0.336
0.324
0.342
0.356
0.347
0.365
0.362
0.361
0.347
0.334
0.332
0.299
0.288
0.279
0.263
0.234
0.211
0.189
0.174
0.151
0.12
0.101
0.072
0.04
0.018
-0.02
-0.037
-0.053
-0.085
-0.111
-0.126
-0.164
-0.187
-0.181
-0.194
-0.211
-0.205
-0.22
-0.23
-0.234
-0.221
-0.233
-0.232
-0.22
-0.21
-0.216
-0.204
-0.188
-0.178
-0.17
-0.16
-0.156
-0.147
-0.142
-0.128
-0.13
-0.122
-0.122
-0.112
-0.11
-0.108
-0.097
-0.101
-0.102
-0.093
-0.105
-0.102
-0.109
-0.071
-0.088
-0.088
-0.088
-0.088
-0.092
-0.089
-0.084
-0.087
-0.074
-0.055
-0.031
-0.004
0.015
0.036
0.068
0.083
0.072
0.091
0.078
0.064
0.04
-0.002
-0.001
-0.029
-0.075
-0.085
-0.101
-0.128
-0.117
-0.107
-0.116
-0.107
-0.108
-0.102
-0.104
-0.112
-0.111
-0.111
-0.102
-0.097
-0.089
-0.09
-0.073
-0.079
-0.078
-0.086
-0.033
0.081
0.151
0.335
0.482
0.588
0.709
0.612
0.137
-0.324
-0.849
-1.161
-1.196
-1.035
-0.849
-0.615
-0.319
-0.093
0.056
0.123
0.165
0.181
0.197
0.213
0.224
0.226
0.24
0.248
0.244
0.249
0.257
0.257
0.256
0.266
0.287
0.296
0.295
0.294
0.321
0.33
0.337
0.331
0.326
0.332
0.337
0.365
0.363
0.364
0.364
0.373
0.363
0.36
0.36
0.355
0.338
0.317
0.298
0.283
0.254
0.245
0.207
0.203
0.166
0.162
0.135
0.106
0.073
0.061
0.022
0.004
-0.016
-0.044
-0.077
-0.095
-0.116
-0.143
-0.156
-0.19
-0.186
-0.183
-0.196
-0.198
-0.213
-0.217
-0.205
-0.218
-0.219
-0.192
-0.19
-0.186
-0.183
-0.169
-0.171
-0.16
-0.136
-0.153
-0.136
-0.129
-0.109
-0.099
-0.097
-0.086
-0.09
-0.085
-0.073
-0.08
-0.076
-0.067
-0.082
-0.063
-0.07
-0.08
-0.074
-0.063
-0.07
-0.079
-0.081
-0.068
-0.077
-0.081
-0.084
-0.067
-0.077
-0.072
-0.082
-0.067
-0.07
-0.075
-0.064
-0.068
-0.058
-0.052
-0.05
-0.036
0.001
0.021
0.043
0.063
0.096
0.097
0.094
0.116
0.096
0.103
0.079
0.059
0.041
0.014
-0.033
-0.052
-0.064
-0.074
-0.084
-0.084
-0.084
-0.084
-0.09
-0.076
-0.074
-0.079
-0.083
-0.076
-0.074
-0.071
-0.058
-0.058
-0.057
-0.06
-0.049
-0.064
-0.028
0.073
0.162
0.332
0.467
0.579
0.701
0.637
0.231
-0.232
-0.745
-1.067
-1.13
-0.98
-0.807
-0.595
-0.332
-0.094
0.047
0.12
0.141
0.169
0.204
0.211
0.218
0.224
0.225
0.238
0.241
0.238
0.245
0.237
0.252
0.273
0.279
0.28
0.259
0.294
0.296
0.3
0.303
0.309
0.314
0.316
0.322
0.317
0.33
0.34
0.335
0.342
0.329
0.329
0.328
0.321
0.304
0.291
0.272
0.254
0.232
0.206
0.19
0.178
0.154
0.125
0.109
0.091
0.066
0.037
0.006
-0.017
-0.033
-0.066
-0.089
-0.121
-0.124
-0.153
-0.182
-0.201
-0.216
-0.226
-0.243
-0.249
-0.232
-0.243
-0.249
-0.239
-0.24
-0.237
-0.234
-0.211
-0.216
-0.202
-0.189
-0.191
-0.181
-0.164
-0.159
-0.155
-0.149
-0.143
-0.14
-0.139
-0.135
-0.124
-0.126
-0.116
-0.125
-0.125
-0.108
-0.106
-0.12
-0.122
-0.102
-0.106
-0.128
-0.13
-0.098
-0.106
-0.102
-0.107
-0.115
-0.104
-0.122
-0.103
-0.107
-0.11
-0.111
-0.105
-0.106
-0.115
-0.113
-0.102
-0.096
-0.101
-0.104
-0.103
-0.103
-0.101
-0.093
-0.08
-0.103
-0.06
-0.048
-0.036
-0.009
0.005
0.023
0.015
0.014
0.017
0.031
0.051
0.044
0.041
0.031
0.009
0.029
0.017
-0.004
-0.013
-0.042
-0.056
-0.051
-0.063
-0.086
-0.086
-0.077
-0.097
-0.079
-0.083
-0.079
-0.065
-0.069
-0.065
-0.064
-0.043
-0.048
-0.044
-0.048
-0.03
-0.023
-0.012
0.068
0.157
0.309
0.459
0.573
0.727
0.709
0.361
-0.097
-0.613
-0.998
-1.071
-0.971
-0.788
-0.616
-0.377
-0.127
0.042
0.117
0.143
0.187
0.198
0.221
0.228
0.224
0.242
0.252
0.253
0.244
0.255
0.259
0.283
0.281
0.266
0.29
0.305
0.303
0.303
0.309
0.323
0.325
0.311
0.316
0.335
0.344
0.339
0.324
0.356
0.36
0.345
0.343
0.339
0.335
0.315
0.309
0.304
0.289
0.268
0.241
0.22
0.199
0.186
0.152
0.133
0.122
0.1
0.061
0.047
0.024
0.009
-0.021
-0.077
-0.079
-0.095
-0.114
-0.139
-0.169
-0.177
-0.195
-0.209
-0.219
-0.228
-0.228
-0.227
-0.228
-0.228
-0.224
-0.213
-0.209
-0.204
-0.209
-0.195
-0.195
-0.158
-0.158
-0.14
-0.145
-0.134
-0.142
-0.132
-0.116
-0.119
-0.121
-0.122
-0.121
-0.108
-0.118
-0.137
-0.125
-0.123
-0.121
-0.116
-0.109
-0.107
-0.112
-0.112
-0.112
-0.106
-0.098
-0.105
-0.111
-0.088
-0.09
-0.088
-0.101
-0.086
-0.085
-0.096
-0.068
-0.053
-0.034
-0.007
0.006
0.017
0.046
0.072
0.078
0.079
0.083
0.066
0.071
0.043
0.021
-0.008
-0.031
-0.06
-0.077
-0.093
-0.095
-0.103
-0.1
-0.102
-0.101
-0.081
-0.087
-0.083
-0.086
-0.093
-0.083
-0.083
-0.072
-0.068
-0.061
-0.054
-0.055
-0.073
-0.053
0.021
0.123
0.232
0.403
0.528
0.691
0.746
0.461
0.023
-0.445
-0.93
-1.047
-0.97
-0.864
-0.724
-0.518
-0.287
-0.082
0.036
0.121
0.149
0.157
0.182
0.184
0.196
0.196
0.212
0.222
0.23
0.235
0.233
0.243
0.251
0.25
0.257
0.268
0.27
0.26
0.281
0.277
0.29
0.3
0.29
0.294
0.315
0.323
0.327
0.305
0.307
0.334
0.324
0.32
0.32
0.316
0.299
0.273
0.27
0.245
0.222
0.21
0.185
0.168
0.16
0.136
0.111
0.083
0.066
0.031
-0.011
-0.038
-0.027
-0.071
-0.086
-0.098
-0.143
-0.173
-0.15
-0.184
-0.187
-0.203
-0.207
-0.217
-0.217
-0.226
-0.226
-0.223
-0.212
-0.211
-0.212
-0.197
-0.185
-0.189
-0.174
-0.17
-0.168
-0.159
-0.158
-0.14
-0.136
-0.135
-0.128
-0.103
-0.103
-0.093
-0.103
-0.109
-0.091
-0.088
-0.085
-0.083
-0.089
-0.101
-0.088
-0.085
-0.087
-0.061
-0.046
-0.021
-0.017
0.002
0.018
0.048
0.074
0.08
0.092
0.08
0.061
0.065
0.027
0.017
-0.034
-0.035
-0.065
-0.073
-0.094
-0.122
-0.127
-0.106
-0.125
-0.112
-0.103
-0.109
-0.107
-0.1
-0.098
-0.102
-0.099
-0.087
-0.081
-0.078
-0.076
-0.073
-0.088
-0.073
-0.01
0.095
0.193
0.386
0.497
0.626
0.734
0.526
0.056
-0.372
-0.902
-1.115
-1.087
-0.97
-0.826
-0.633
-0.379
-0.15
0.03
0.112
0.154
0.17
0.183
0.203
0.208
0.218
0.221
0.233
0.238
0.25
0.253
0.249
0.26
0.27
0.257
0.273
0.279
0.285
0.289
0.3
0.302
0.309
0.322
0.322
0.326
0.351
0.346
0.337
0.331
0.377
0.374
0.347
0.352
0.339
0.329
0.312
0.293
0.274
0.25
0.229
0.207
0.182
0.163
0.127
0.114
0.073
0.039
0.034
-0.008
-0.025
-0.055
-0.085
-0.105
-0.121
-0.137
-0.172
-0.188
-0.209
-0.204
-0.211
-0.234
-0.243
-0.218
-0.232
-0.242
-0.254
-0.211
-0.22
-0.213
-0.214
-0.195
-0.204
-0.192
-0.171
-0.16
-0.155
-0.148
-0.148
-0.136
-0.136
-0.126
-0.118
-0.119
-0.108
-0.105
-0.105
-0.094
-0.107
-0.109
-0.089
-0.099
-0.103
-0.102
-0.086
-0.065
-0.052
-0.042
-0.014
-0.01
0.017
0.051
0.061
0.057
0.065
0.055
0.034
0.003
-0.013
-0.039
-0.057
-0.103
-0.109
-0.12
-0.131
-0.14
-0.143
-0.146
-0.152
-0.144
-0.146
-0.144
-0.138
-0.148
-0.136
-0.131
-0.124
-0.108
-0.107
-0.108
-0.119
-0.122
-0.129
-0.055
0.043
0.137
0.318
0.465
0.558
0.674
0.6
0.152
-0.314
-0.834
-1.185
-1.206
-1.073
-0.895
-0.689
-0.403
-0.134
0.024
0.102
0.135
0.174
0.181
0.199
0.199
0.199
0.219
0.217
0.226
0.232
0.232
0.247
0.253
0.24
0.265
0.244
0.291
0.261
0.282
0.307
0.314
0.318
0.318
0.326
0.332
0.341
0.337
0.342
0.349
0.356
0.344
0.35
0.335
0.351
0.344
0.32
0.299
0.269
0.267
0.243
0.215
0.188
0.175
0.149
0.12
0.092
0.066
0.045
-0.002
-0.044
-0.052
-0.074
-0.087
-0.119
-0.14
-0.152
-0.171
-0.193
-0.211
-0.212
-0.224
-0.237
-0.244
-0.23
-0.232
-0.224
-0.215
-0.207
-0.206
-0.209
-0.188
-0.18
-0.173
-0.159
-0.152
-0.149
-0.13
-0.134
-0.123
-0.119
-0.13
-0.093
-0.108
-0.095
-0.085
-0.09
-0.091
-0.083
-0.091
-0.097
-0.09
-0.092
-0.086
-0.085
-0.075
-0.026
-0.021
-0.001
-0.004
0.035
0.058
0.062
0.067
0.076
0.037
0.042
0.011
-0.013
-0.048
-0.071
-0.105
-0.113
-0.125
-0.128
-0.128
-0.14
-0.15
-0.131
-0.139
-0.143
-0.13
-0.141
-0.126
-0.108
-0.108
-0.115
-0.101
-0.088
-0.099
-0.09
-0.093
-0.085
-0.027
0.07
0.157
0.34
0.467
0.585
0.705
0.561
0.106
-0.375
-0.918
-1.188
-1.173
-1.008
-0.828
-0.609
-0.31
-0.078
0.042
0.12
0.162
0.191
0.208
0.212
0.218
0.24
0.237
0.253
0.25
0.265
0.27
0.278
0.291
0.29
0.287
0.315
0.326
0.302
0.321
0.337
0.335
0.364
0.363
0.356
0.367
0.376
0.374
0.368
0.382
0.395
0.381
0.38
0.371
0.355
0.347
0.325
0.306
0.294
0.259
0.243
0.213
0.185
0.18
0.145
0.12
0.101
0.07
0.044
-0.007
-0.014
-0.023
-0.058
-0.091
-0.109
-0.13
-0.153
-0.177
-0.19
-0.201
-0.205
-0.226
-0.218
-0.216
-0.208
-0.213
-0.202
-0.211
-0.199
-0.195
-0.176
-0.172
-0.16
-0.141
-0.141
-0.146
-0.128
-0.122
-0.124
-0.103
-0.102
-0.113
-0.087
-0.088
-0.078
-0.075
-0.074
-0.073
-0.073
-0.077
-0.088
-0.083
-0.076
-0.079
-0.066
-0.055
-0.033
-0.007
0.009
0.007
0.021
0.069
0.08
0.081
0.074
0.086
0.054
0.045
0.027
-0.012
-0.018
-0.052
-0.073
-0.103
-0.118
-0.129
-0.125
-0.131
-0.135
-0.138
-0.141
-0.127
-0.131
-0.121
-0.12
-0.114
-0.106
-0.094
-0.095
-0.09
-0.092
-0.099
-0.11
-0.082
-0.048
0.058
0.135
0.304
0.448
0.584
0.703
0.573
0.101
-0.355
-0.878
-1.14
-1.135
-0.965
-0.791
-0.583
-0.29
-0.054
0.049
0.101
0.143
0.156
0.197
0.196
0.214
0.196
0.216
0.224
0.21
0.203
0.219
0.236
0.237
0.251
0.258
0.251
0.268
0.275
0.273
0.282
0.288
0.306
0.304
0.309
0.318
0.329
0.327
0.325
0.344
0.338
0.34
0.331
0.324
0.288
0.294
0.273
0.271
0.25
0.235
0.206
0.166
0.162
0.149
0.12
0.101
0.075
0.049
0.028
0.003
-0.036
-0.076
-0.079
-0.108
-0.134
-0.144
-0.165
-0.173
-0.192
-0.199
-0.213
-0.233
-0.223
-0.225
-0.235
-0.221
-0.23
-0.214
-0.2
-0.204
-0.204
-0.195
-0.187
-0.172
-0.166
-0.157
-0.146
-0.145
-0.152
-0.137
-0.132
-0.145
-0.14
-0.136
-0.131
-0.132
-0.126
-0.129
-0.132
-0.126
-0.131
-0.136
-0.152
-0.143
-0.15
-0.13
-0.133
-0.117
-0.09
-0.07
-0.052
-0.038
-0.026
-0.008
0.021
0.031
0.046
0.051
0.033
0.032
0.025
-0.015
-0.034
-0.068
-0.098
-0.107
-0.114
-0.126
-0.127
-0.119
-0.131
-0.145
-0.136
-0.149
-0.119
-0.12
-0.118
-0.106
-0.106
-0.116
-0.105
-0.088
-0.078
-0.081
-0.09
-0.086
-0.059
0.009
0.09
0.21
0.393
0.494
0.648
0.71
0.429
-0.04
-0.524
-1.01
-1.127
-1.052
-0.849
-0.68
-0.43
-0.161
0.027
0.108
0.155
0.175
0.201
0.218
0.228
0.223
0.234
0.256
0.261
0.255
0.277
0.268
0.276
0.273
0.28
0.296
0.306
0.315
0.305
0.315
0.321
0.338
0.326
0.331
0.347
0.341
0.357
0.366
0.36
0.358
0.362
0.345
0.346
0.336
0.33
0.317
0.292
0.264
0.248
0.227
0.2
0.189
0.174
0.149
0.12
0.089
0.081
0.051
0.031
-0.01
-0.025
-0.053
-0.09
-0.099
-0.121
-0.151
-0.169
-0.163
-0.19
-0.202
-0.207
-0.208
-0.212
-0.211
-0.205
-0.21
-0.218
-0.202
-0.209
-0.177
-0.182
-0.163
-0.153
-0.157
-0.154
-0.151
-0.14
-0.138
-0.12
-0.127
-0.128
-0.104
-0.105
-0.109
-0.106
-0.092
-0.106
-0.104
-0.093
-0.094
-0.101
-0.106
-0.098
-0.091
-0.091
-0.063
-0.045
-0.038
-0.003
-0.01
0.019
0.044
0.064
0.058
0.049
0.039
0.022
-0.012
-0.04
-0.042
-0.081
-0.096
-0.111
-0.142
-0.148
-0.138
-0.147
-0.148
-0.157
-0.146
-0.146
-0.154
-0.156
-0.139
-0.133
-0.137
-0.132
-0.119
-0.11
-0.103
-0.111
-0.117
-0.105
-0.056
0.051
0.114
0.299
0.419
0.565
0.723
0.56
0.141
-0.302
-0.856
-1.123
-1.099
-0.962
-0.81
-0.63
-0.37
-0.145
0
0.076
0.118
0.125
0.155
0.163
0.172
0.195
0.196
0.209
0.22
0.219
0.206
0.23
0.242
0.239
0.244
0.258
0.257
0.266
0.271
0.273
0.279
0.282
0.298
0.299
0.307
0.326
0.334
0.314
0.333
0.329
0.325
0.33
0.323
0.301
0.303
0.287
0.257
0.234
0.215
0.195
0.202
0.175
0.165
0.14
0.099
0.079
0.056
0.03
-0.005
-0.035
-0.052
-0.09
-0.089
-0.118
-0.142
-0.16
-0.174
-0.198
-0.209
-0.214
-0.222
-0.237
-0.243
-0.241
-0.224
-0.21
-0.207
-0.2
-0.193
-0.194
-0.184
-0.166
-0.157
-0.16
-0.151
-0.141
-0.127
-0.118
-0.111
-0.1
-0.096
-0.093
-0.095
-0.084
-0.075
-0.077
-0.065
-0.05
-0.025
-0.017
-0.007
0.008
0.011
0.054
0.069
0.076
0.09
0.091
0.045
0.042
0.028
0.005
-0.012
-0.058
-0.092
-0.107
-0.102
-0.116
-0.133
-0.133
-0.121
-0.135
-0.138
-0.122
-0.122
-0.14
-0.13
-0.144
-0.106
-0.098
-0.089
-0.087
-0.092
-0.086
-0.094
-0.079
-0.037
0.06
0.171
0.326
0.48
0.573
0.743
0.628
0.18
-0.247
-0.758
-1.084
-1.1
-1.004
-0.853
-0.694
-0.444
-0.203
-0.022
0.076
0.123
0.157
0.191
0.205
0.216
0.203
0.234
0.242
0.237
0.25
0.237
0.264
0.265
0.265
0.278
0.29
0.289
0.304
0.306
0.298
0.313
0.328
0.328
0.333
0.336
0.359
0.346
0.343
0.383
0.376
0.374
0.368
0.35
0.352
0.323
0.321
0.3
0.282
0.251
0.236
0.211
0.174
0.166
0.131
0.118
0.088
0.053
0.032
0.015
-0.02
-0.048
-0.072
-0.08
-0.109
-0.138
-0.153
-0.164
-0.177
-0.178
-0.184
-0.215
-0.198
-0.195
-0.203
-0.192
-0.193
-0.21
-0.202
-0.177
-0.161
-0.168
-0.172
-0.151
-0.122
-0.135
-0.125
-0.117
-0.106
-0.098
-0.101
-0.094
-0.088
-0.088
-0.093
-0.08
-0.074
-0.079
-0.058
-0.041
-0.023
-0.006
-0.004
-0.008
0.015
0.059
0.056
0.056
0.044
0.036
0.008
-0.012
-0.012
-0.04
-0.074
-0.103
-0.117
-0.132
-0.145
-0.141
-0.152
-0.16
-0.139
-0.138
-0.149
-0.145
-0.137
-0.147
-0.141
-0.134
-0.129
-0.126
-0.127
-0.117
-0.106
-0.113
-0.096
-0.062
0.054
0.144
0.315
0.449
0.532
0.674
0.608
0.165
-0.298
-0.837
-1.201
-1.233
-1.098
-0.913
-0.713
-0.417
-0.144
0.009
0.106
0.154
0.177
0.176
0.21
0.229
0.233
0.251
0.247
0.253
0.261
0.263
0.263
0.282
0.279
0.28
0.281
0.267
0.296
0.309
0.302
0.332
0.325
0.328
0.333
0.351
0.351
0.359
0.345
0.356
0.352
0.354
0.357
0.342
0.34
0.316
0.302
0.291
0.263
0.251
0.229
0.195
0.186
0.152
0.115
0.105
0.083
0.054
0.024
-0.012
-0.058
-0.03
-0.071
-0.1
-0.124
-0.143
-0.164
-0.179
-0.185
-0.208
-0.201
-0.223
-0.218
-0.242
-0.218
-0.22
-0.21
-0.199
-0.196
-0.198
-0.182
-0.17
-0.153
-0.166
-0.141
-0.136
-0.124
-0.124
-0.124
-0.108
-0.108
-0.106
-0.089
-0.093
-0.098
-0.063
-0.077
-0.085
-0.071
-0.062
-0.069
-0.038
-0.009
-0.011
-0.016
0.007
0.021
0.064
0.064
0.076
0.075
0.047
0.04
0.013
-0.017
-0.018
-0.043
-0.077
-0.102
-0.112
-0.125
-0.13
-0.143
-0.144
-0.166
-0.137
-0.13
-0.152
-0.154
-0.131
-0.136
-0.125
-0.123
-0.122
-0.128
-0.111
-0.117
-0.124
-0.129
-0.1
-0.02
0.104
0.237
0.401
0.485
0.606
0.631
0.302
-0.204
-0.697
-1.153
-1.281
-1.173
-0.976
-0.755
-0.458
-0.185
-0.009
0.086
0.131
0.175
0.194
0.208
0.214
0.207
0.208
0.237
0.244
0.241
0.233
0.28
0.274
0.282
0.282
0.294
0.289
0.301
0.311
0.301
0.318
0.326
0.33
0.335
0.337
0.356
0.363
0.367
0.372
0.378
0.381
0.371
0.365
0.342
0.351
0.318
0.299
0.288
0.256
0.219
0.204
0.21
0.165
0.166
0.131
0.118
0.081
0.056
0.023
0.005
-0.02
-0.043
-0.081
-0.099
-0.117
-0.155
-0.173
-0.179
-0.202
-0.209
-0.218
-0.22
-0.225
-0.234
-0.249
-0.223
-0.225
-0.238
-0.229
-0.212
-0.189
-0.18
-0.183
-0.191
-0.176
-0.17
-0.163
-0.162
-0.158
-0.151
-0.136
-0.132
-0.138
-0.127
-0.123
-0.127
-0.113
-0.117
-0.108
-0.097
-0.113
-0.12
-0.121
-0.101
-0.102
-0.108
-0.092
-0.113
-0.085
-0.064
-0.053
-0.021
-0.004
0.003
-0.003
0.024
0.053
0.073
0.07
0.064
0.041
0.023
0.006
-0.006
-0.023
-0.052
-0.084
-0.11
-0.089
-0.103
-0.105
-0.115
-0.12
-0.116
-0.12
-0.098
-0.107
-0.111
-0.109
-0.103
-0.086
-0.089
-0.071
-0.068
-0.063
-0.061
-0.073
-0.052
0.006
0.115
0.191
0.362
0.488
0.604
0.697
0.531
0.054
-0.413
-0.932
-1.158
-1.134
-0.95
-0.775
-0.541
-0.251
-0.031
0.061
0.137
0.18
0.196
0.205
0.222
0.228
0.244
0.241
0.264
0.244
0.251
0.277
0.297
0.294
0.29
0.297
0.3
0.316
0.316
0.327
0.332
0.333
0.329
0.348
0.348
0.363
0.368
0.362
0.354
0.355
0.374
0.362
0.337
0.333
0.336
0.32
0.292
0.266
0.263
0.242
0.227
0.205
0.184
0.164
0.128
0.121
0.087
0.064
0.027
-0.012
-0.024
-0.056
-0.072
-0.101
-0.129
-0.15
-0.175
-0.189
-0.206
-0.203
-0.215
-0.227
-0.242
-0.225
-0.239
-0.23
-0.229
-0.222
-0.214
-0.205
-0.209
-0.208
-0.189
-0.18
-0.194
-0.152
-0.155
-0.16
-0.128
-0.128
-0.119
-0.127
-0.117
-0.121
-0.117
-0.102
-0.116
-0.111
-0.112
-0.113
-0.113
-0.116
-0.127
-0.116
-0.118
-0.116
-0.117
-0.126
-0.125
-0.136
-0.135
-0.14
-0.123
-0.133
-0.142
-0.125
-0.117
-0.114
-0.104
-0.11
-0.107
-0.09
-0.077
-0.056
-0.04
-0.038
-0.012
-0.016
-0.009
0.004
0.022
0.034
0.029
0.011
0.006
-0.019
-0.023
-0.04
-0.06
-0.079
-0.093
-0.087
-0.088
-0.098
-0.105
-0.099
-0.113
-0.107
-0.102
-0.105
-0.081
-0.093
-0.089
-0.071
-0.085
-0.075
-0.063
-0.056
-0.06
-0.078
-0.054
0.042
0.13
0.268
0.426
0.509
0.668
0.671
0.363
-0.105
-0.616
-1.046
-1.125
-1.024
-0.856
-0.688
-0.416
-0.162
0.009
0.114
0.155
0.171
0.191
0.226
0.23
0.233
0.235
0.243
0.253
0.256
0.248
0.263
0.255
0.281
0.268
0.274
0.283
0.286
0.305
0.299
0.325
0.309
0.311
0.329
0.336
0.334
0.336
0.324
0.342
0.353
0.346
0.334
0.335
0.323
0.321
0.306
0.285
0.26
0.254
0.217
0.2
0.182
0.153
0.149
0.121
0.095
0.067
0.044
0.023
-0.016
-0.018
-0.05
-0.071
-0.104
-0.13
-0.132
-0.171
-0.175
-0.186
-0.215
-0.221
-0.228
-0.226
-0.236
-0.246
-0.235
-0.237
-0.239
-0.216
-0.214
-0.212
-0.196
-0.182
-0.183
-0.171
-0.159
-0.16
-0.166
-0.148
-0.151
-0.116
-0.124
-0.121
-0.109
-0.106
-0.106
-0.114
-0.112
-0.111
-0.104
-0.109
-0.088
-0.091
-0.099
-0.108
-0.097
-0.106
-0.109
-0.09
-0.1
-0.095
-0.098
-0.104
-0.11
-0.11
-0.08
-0.084
-0.083
-0.08
-0.08
-0.082
-0.082
-0.081
-0.059
-0.049
-0.054
-0.047
-0.002
0.023
0.031
0.033
0.024
0.023
0.074
0.073
0.092
0.076
0.038
0.027
0.027
0.004
-0.036
-0.04
-0.047
-0.044
-0.041
-0.057
-0.071
-0.065
-0.064
-0.051
-0.07
-0.066
-0.07
-0.041
-0.047
-0.06
-0.033
-0.026
-0.022
-0.018
-0.024
-0.02
0.027
0.168
0.253
0.417
0.518
0.65
0.792
0.585
0.144
-0.298
-0.829
-1.032
-0.998
-0.884
-0.737
-0.554
-0.315
-0.066
0.061
0.147
0.18
0.203
0.225
0.221
0.224
0.246
0.243
0.25
0.246
0.275
0.254
0.27
0.299
0.29
0.284
0.309
0.315
0.296
0.319
0.327
0.33
0.338
0.335
0.335
0.351
0.354
0.352
0.351
0.373
0.375
0.358
0.361
0.354
0.35
0.337
0.325
0.298
0.286
0.26
0.264
0.236
0.217
0.177
0.16
0.134
0.114
0.093
0.054
0.04
0.016
-0.007
-0.037
-0.069
-0.089
-0.102
-0.141
-0.145
-0.168
-0.174
-0.179
-0.2
-0.203
-0.205
-0.224
-0.21
-0.205
-0.197
-0.198
-0.197
-0.193
-0.197
-0.19
-0.168
-0.156
-0.159
-0.144
-0.141
-0.14
-0.115
-0.115
-0.114
-0.1
-0.107
-0.098
-0.091
-0.09
-0.08
-0.08
-0.08
-0.082
-0.099
-0.11
-0.074
-0.074
-0.089
-0.099
-0.083
-0.078
-0.086
-0.095
-0.093
-0.091
-0.08
-0.087
-0.077
-0.061
-0.051
-0.025
-0.002
0.005
0.001
-0.003
0.025
0.035
0.062
0.065
0.051
0.008
0.01
-0.009
-0.01
-0.05
-0.07
-0.071
-0.081
-0.114
-0.088
-0.105
-0.11
-0.112
-0.105
-0.105
-0.103
-0.108
-0.089
-0.094
-0.09
-0.077
-0.084
-0.08
-0.062
-0.078
-0.082
-0.013
0.094
0.192
0.376
0.502
0.593
0.695
0.561
0.105
-0.328
-0.847
-1.133
-1.128
-1.029
-0.851
-0.691
-0.424
-0.199
-0.006
0.081
0.146
0.169
0.184
0.19
0.212
0.206
0.222
0.227
0.227
0.228
0.225
0.24
0.26
0.242
0.256
0.248
0.269
0.273
0.266
0.262
0.284
0.292
0.287
0.291
0.309
0.305
0.306
0.322
0.331
0.306
0.324
0.337
0.324
0.314
0.297
0.291
0.27
0.243
0.229
0.214
0.191
0.159
0.153
0.124
0.102
0.064
0.054
0.03
-0.006
-0.035
-0.052
-0.078
-0.111
-0.144
-0.159
-0.177
-0.182
-0.214
-0.211
-0.224
-0.237
-0.232
-0.24
-0.245
-0.262
-0.248
-0.237
-0.232
-0.251
-0.215
-0.215
-0.207
-0.202
-0.206
-0.186
-0.187
-0.163
-0.157
-0.153
-0.15
-0.149
-0.146
-0.146
-0.137
-0.125
-0.111
-0.116
-0.126
-0.102
-0.101
-0.094
-0.098
-0.098
-0.108
-0.101
-0.09
-0.098
-0.093
-0.095
-0.112
-0.103
-0.095
-0.074
-0.079
-0.053
-0.013
-0.007
0.015
0.031
0.069
0.078
0.087
0.096
0.074
0.074
0.052
0.018
-0.013
-0.043
-0.061
-0.078
-0.086
-0.1
-0.096
-0.112
-0.107
-0.109
-0.112
-0.105
-0.127
-0.118
-0.098
-0.082
-0.086
-0.088
-0.073
-0.086
-0.071
-0.064
-0.074
-0.047
0.049
0.152
0.28
0.452
0.546
0.67
0.687
0.37
-0.129
-0.626
-1.08
-1.207
-1.141
-0.953
-0.775
-0.517
-0.268
-0.017
0.087
0.145
0.165
0.178
0.222
0.216
0.216
0.228
0.249
0.253
0.239
0.252
0.252
0.275
0.269
0.257
0.29
0.295
0.293
0.305
0.308
0.306
0.32
0.327
0.316
0.331
0.345
0.347
0.352
0.35
0.364
0.362
0.361
0.353
0.365
0.349
0.326
0.306
0.294
0.26
0.242
0.24
0.203
0.183
0.163
0.14
0.116
0.087
0.056
0.03
0.004
-0.03
-0.06
-0.085
-0.1
-0.131
-0.152
-0.162
-0.191
-0.208
-0.21
-0.211
-0.228
-0.219
-0.225
-0.236
-0.241
-0.229
-0.227
-0.229
-0.215
-0.192
-0.19
-0.173
-0.169
-0.18
-0.161
-0.134
-0.131
-0.122
-0.118
-0.115
-0.098
-0.102
-0.099
-0.102
-0.102
-0.096
-0.1
-0.09
-0.095
-0.088
-0.094
-0.096
-0.09
-0.093
-0.091
-0.091
-0.09
-0.089
-0.094
-0.08
-0.09
-0.083
-0.074
-0.092
-0.083
-0.074
-0.068
-0.056
-0.022
-0.001
0.019
0.016
0.041
0.091
0.092
0.106
0.082
0.082
0.074
0.054
0.026
0.005
-0.04
-0.059
-0.081
-0.097
-0.109
-0.117
-0.108
-0.112
-0.118
-0.117
-0.108
-0.111
-0.117
-0.118
-0.097
-0.095
-0.094
-0.108
-0.075
-0.069
-0.083
-0.076
-0.028
0.092
0.161
0.339
0.474
0.599
0.699
0.59
0.164
-0.312
-0.841
-1.143
-1.175
-1.048
-0.84
-0.641
-0.36
-0.103
0.057
0.117
0.174
0.194
0.221
0.242
0.237
0.237
0.238
0.252
0.266
0.261
0.272
0.27
0.296
0.287
0.277
0.298
0.307
0.305
0.312
0.318
0.321
0.337
0.339
0.324
0.362
0.361
0.366
0.369
0.369
0.368
0.363
0.36
0.354
0.365
0.341
0.331
0.319
0.297
0.269
0.252
0.229
0.202
0.178
0.157
0.138
0.11
0.09
0.055
0.034
0.004
-0.028
-0.044
-0.066
-0.091
-0.118
-0.123
-0.155
-0.165
-0.187
-0.178
-0.218
-0.215
-0.21
-0.219
-0.22
-0.219
-0.209
-0.205
-0.206
-0.191
-0.188
-0.178
-0.183
-0.16
-0.161
-0.135
-0.128
-0.135
-0.135
-0.114
-0.133
-0.108
-0.104
-0.1
-0.105
-0.099
-0.097
-0.096
-0.105
-0.101
-0.1
-0.092
-0.111
-0.086
-0.095
-0.095
-0.103
-0.087
-0.106
-0.088
-0.084
-0.098
-0.084
-0.094
-0.096
-0.065
-0.083
-0.088
-0.082
-0.079
-0.086
-0.088
-0.084
-0.082
-0.059
-0.044
-0.007
0.011
0.002
0.064
0.082
0.084
0.093
0.099
0.066
0.072
0.072
0.038
0.001
-0.041
-0.049
-0.072
-0.078
-0.094
-0.09
-0.093
-0.096
-0.103
-0.09
-0.09
-0.093
-0.091
-0.09
-0.089
-0.077
-0.071
-0.071
-0.055
-0.055
-0.062
-0.062
-0.009
0.08
0.151
0.349
0.492
0.606
0.717
0.66
0.26
-0.208
-0.728
-1.076
-1.121
-0.988
-0.818
-0.622
-0.376
-0.116
0.036
0.128
0.16
0.161
0.199
0.223
0.226
0.23
0.232
0.237
0.241
0.255
0.253
0.249
0.276
0.281
0.273
0.281
0.285
0.277
0.295
0.297
0.306
0.311
0.306
0.312
0.319
0.327
0.332
0.331
0.34
0.342
0.346
0.33
0.327
0.317
0.316
0.313
0.283
0.252
0.252
0.222
0.196
0.196
0.158
0.143
0.122
0.096
0.074
0.047
0.016
-0.001
-0.033
-0.045
-0.077
-0.097
-0.121
-0.148
-0.156
-0.18
-0.19
-0.212
-0.226
-0.232
-0.244
-0.235
-0.242
-0.253
-0.222
-0.222
-0.219
-0.222
-0.211
-0.18
-0.183
-0.182
-0.182
-0.162
-0.15
-0.139
-0.14
-0.136
-0.135
-0.13
-0.11
-0.119
-0.118
-0.104
-0.123
-0.117
-0.111
-0.114
-0.1
-0.109
-0.121
-0.121
-0.123
-0.119
-0.117
-0.114
-0.12
-0.107
-0.12
-0.109
-0.1
-0.097
-0.087
-0.095
-0.084
-0.083
-0.085
-0.091
-0.077
-0.083
-0.083
-0.087
-0.081
-0.092
-0.085
-0.078
-0.069
-0.063
-0.053
-0.057
-0.064
-0.057
-0.043
-0.041
-0.028
-0.013
0.013
0.035
0.051
0.057
0.04
0.047
0.082
0.092
0.1
0.108
0.099
0.071
0.062
0.044
0.03
0.016
-0.023
-0.038
-0.055
-0.072
-0.082
-0.074
-0.079
-0.08
-0.084
-0.075
-0.094
-0.075
-0.066
-0.057
-0.047
-0.062
-0.057
-0.045
-0.047
-0.058
-0.036
0.022
0.1
0.216
0.375
0.49
0.652
0.729
0.522
0.05
-0.397
-0.899
-1.069
-1.062
-0.886
-0.73
-0.52
-0.256
-0.041
0.07
0.136
0.149
0.169
0.181
0.208
0.208
0.201
0.228
0.231
0.226
0.218
0.225
0.246
0.243
0.254
0.255
0.264
0.276
0.274
0.265
0.278
0.287
0.288
0.287
0.3
0.305
0.319
0.323
0.32
0.314
0.328
0.332
0.322
0.332
0.323
0.296
0.271
0.261
0.24
0.239
0.215
0.178
0.179
0.142
0.134
0.106
0.084
0.063
0.035
0.01
-0.012
-0.032
-0.052
-0.086
-0.094
-0.119
-0.13
-0.155
-0.163
-0.189
-0.204
-0.2
-0.205
-0.21
-0.217
-0.22
-0.219
-0.219
-0.21
-0.211
-0.189
-0.193
-0.184
-0.179
-0.163
-0.15
-0.147
-0.139
-0.146
-0.124
-0.124
-0.114
-0.11
-0.11
-0.103
-0.099
-0.1
-0.104
-0.108
-0.103
-0.091
-0.099
-0.106
-0.11
-0.107
-0.096
-0.106
-0.096
-0.09
-0.103
-0.089
-0.106
-0.087
-0.102
-0.092
-0.096
-0.09
-0.084
-0.076
-0.09
-0.078
-0.079
-0.07
-0.073
-0.07
-0.052
-0.056
-0.065
-0.067
-0.052
-0.059
-0.045
-0.037
-0.05
-0.041
-0.037
-0.023
-0.014
0.006
0.046
0.049
0.055
0.096
0.111
0.122
0.12
0.128
0.113
0.104
0.076
0.061
0.034
0.004
-0.021
-0.032
-0.037
-0.047
-0.067
-0.071
-0.072
-0.068
-0.058
-0.052
-0.057
-0.058
-0.048
-0.041
-0.05
-0.055
-0.02
-0.021
-0.024
-0.032
-0.022
0.067
0.15
0.259
0.428
0.533
0.686
0.753
0.538
0.088
-0.372
-0.906
-1.049
-0.986
-0.85
-0.708
-0.524
-0.273
-0.07
0.056
0.106
0.158
0.181
0.196
0.214
0.215
0.222
0.222
0.234
0.24
0.233
0.231
0.256
0.26
0.25
0.244
0.266
0.274
0.278
0.265
0.292
0.291
0.275
0.305
0.303
0.313
0.317
0.314
0.319
0.319
0.313
0.321
0.33
0.332
0.317
0.305
0.284
0.271
0.251
0.23
0.212
0.198
0.18
0.16
0.137
0.109
0.094
0.043
0.045
0.003
0
-0.023
-0.052
-0.082
-0.098
-0.14
-0.149
-0.157
-0.174
-0.171
-0.187
-0.208
-0.223
-0.207
-0.209
-0.22
-0.227
-0.22
-0.209
-0.208
-0.214
-0.205
-0.18
-0.176
-0.185
-0.172
-0.165
-0.148
-0.143
-0.153
-0.139
-0.116
-0.129
-0.121
-0.11
-0.117
-0.109
-0.105
-0.1
-0.098
-0.098
-0.101
-0.106
-0.097
-0.112
-0.128
-0.089
-0.092
-0.107
-0.115
-0.094
-0.098
-0.114
-0.113
-0.085
-0.097
-0.097
-0.071
-0.059
-0.034
-0.011
0.001
0
0.045
0.074
0.076
0.094
0.084
0.068
0.042
0.037
-0.001
-0.026
-0.055
-0.068
-0.089
-0.108
-0.113
-0.124
-0.099
-0.115
-0.124
-0.112
-0.101
-0.094
-0.103
-0.111
-0.098
-0.08
-0.081
-0.084
-0.069
-0.07
-0.095
-0.067
-0.008
0.1
0.197
0.388
0.511
0.647
0.747
0.54
0.101
-0.352
-0.875
-1.066
-1.025
-0.935
-0.805
-0.649
-0.383
-0.161
0.018
0.09
0.112
0.168
0.179
0.198
0.204
0.196
0.226
0.23
0.228
0.229
0.239
0.247
0.251
0.252
0.253
0.25
0.257
0.276
0.274
0.286
0.298
0.286
0.299
0.298
0.298
0.321
0.325
0.332
0.346
0.341
0.345
0.331
0.33
0.341
0.3
0.306
0.289
0.267
0.259
0.231
0.206
0.194
0.181
0.148
0.113
0.092
0.08
0.061
0.026
-0.002
-0.04
-0.059
-0.081
-0.106
-0.142
-0.149
-0.159
-0.171
-0.175
-0.178
-0.192
-0.211
-0.202
-0.2
-0.207
-0.212
-0.212
-0.203
-0.219
-0.183
-0.181
-0.17
-0.174
-0.177
-0.153
-0.144
-0.142
-0.152
-0.147
-0.135
-0.115
-0.108
-0.123
-0.103
-0.115
-0.09
-0.093
-0.098
-0.092
-0.098
-0.086
-0.092
-0.099
-0.083
-0.089
-0.099
-0.063
-0.045
-0.033
-0.026
-0.008
0.003
0.037
0.071
0.062
0.08
0.075
0.049
0.037
0.006
0
-0.039
-0.085
-0.088
-0.108
-0.119
-0.144
-0.125
-0.125
-0.133
-0.141
-0.131
-0.124
-0.132
-0.116
-0.118
-0.107
-0.111
-0.112
-0.099
-0.101
-0.082
-0.087
-0.105
-0.058
0.04
0.134
0.292
0.461
0.553
0.693
0.65
0.24
-0.2
-0.7
-1.096
-1.163
-1.073
-0.918
-0.757
-0.501
-0.228
-0.041
0.074
0.128
0.179
0.182
0.213
0.226
0.22
0.233
0.243
0.245
0.256
0.267
0.26
0.25
0.267
0.269
0.274
0.275
0.288
0.283
0.291
0.3
0.303
0.297
0.319
0.329
0.335
0.335
0.334
0.341
0.349
0.352
0.348
0.337
0.333
0.33
0.309
0.29
0.28
0.259
0.233
0.206
0.195
0.174
0.137
0.118
0.088
0.061
0.038
0.001
-0.029
-0.055
-0.066
-0.123
-0.136
-0.133
-0.161
-0.169
-0.185
-0.206
-0.215
-0.222
-0.24
-0.233
-0.231
-0.23
-0.229
-0.229
-0.229
-0.219
-0.206
-0.202
-0.2
-0.191
-0.171
-0.164
-0.154
-0.147
-0.14
-0.144
-0.139
-0.125
-0.126
-0.132
-0.129
-0.112
-0.115
-0.105
-0.108
-0.099
-0.086
-0.065
-0.043
-0.034
-0.025
-0.009
0.003
0.041
0.055
0.063
0.061
0.051
0.022
-0.003
-0.013
-0.029
-0.067
-0.104
-0.111
-0.119
-0.147
-0.157
-0.146
-0.163
-0.16
-0.146
-0.141
-0.155
-0.144
-0.142
-0.138
-0.134
-0.132
-0.137
-0.12
-0.12
-0.121
-0.12
-0.115
-0.073
0.017
0.114
0.26
0.432
0.516
0.644
0.636
0.276
-0.223
-0.717
-1.155
-1.237
-1.133
-0.937
-0.767
-0.504
-0.211
-0.019
0.07
0.12
0.146
0.161
0.172
0.196
0.212
0.222
0.226
0.241
0.24
0.244
0.262
0.266
0.274
0.273
0.273
0.288
0.293
0.298
0.3
0.314
0.313
0.317
0.332
0.343
0.333
0.356
0.358
0.363
0.368
0.365
0.363
0.344
0.33
0.345
0.318
0.297
0.297
0.271
0.24
0.223
0.197
0.163
0.153
0.126
0.103
0.082
0.05
0.023
0.003
-0.025
-0.058
-0.083
-0.101
-0.122
-0.138
-0.167
-0.174
-0.179
-0.194
-0.214
-0.205
-0.211
-0.215
-0.222
-0.211
-0.205
-0.191
-0.185
-0.187
-0.179
-0.173
-0.158
-0.151
-0.159
-0.14
-0.125
-0.114
-0.108
-0.101
-0.097
-0.095
-0.099
-0.096
-0.09
-0.093
-0.091
-0.081
-0.073
-0.072
-0.075
-0.039
-0.002
0.008
0.013
0.019
0.056
0.079
0.083
0.086
0.08
0.052
0.033
0.013
0.001
-0.025
-0.071
-0.08
-0.094
-0.108
-0.116
-0.121
-0.145
-0.134
-0.128
-0.112
-0.127
-0.127
-0.116
-0.125
-0.109
-0.107
-0.108
-0.114
-0.099
-0.102
-0.1
-0.101
-0.077
-0.028
0.074
0.174
0.351
0.47
0.602
0.706
0.515
0.039
-0.44
-0.968
-1.179
-1.166
-0.968
-0.797
-0.557
-0.274
-0.047
0.056
0.138
0.177
0.187
0.2
0.202
0.211
0.228
0.232
0.252
0.253
0.255
0.263
0.261
0.28
0.295
0.282
0.288
0.301
0.294
0.302
0.308
0.305
0.311
0.317
0.31
0.337
0.329
0.347
0.343
0.353
0.341
0.338
0.344
0.338
0.326
0.299
0.285
0.271
0.248
0.239
0.213
0.192
0.167
0.141
0.121
0.092
0.083
0.039
0.033
-0.017
-0.033
-0.046
-0.075
-0.105
-0.12
-0.146
-0.167
-0.187
-0.197
-0.202
-0.203
-0.209
-0.215
-0.218
-0.207
-0.225
-0.211
-0.192
-0.186
-0.179
-0.173
-0.16
-0.158
-0.149
-0.135
-0.14
-0.126
-0.127
-0.118
-0.112
-0.107
-0.101
-0.111
-0.106
-0.096
-0.101
-0.1
-0.086
-0.104
-0.086
-0.089
-0.092
-0.099
-0.105
-0.079
-0.07
-0.036
-0.015
0
-0.009
0.012
0.052
0.063
0.079
0.084
0.061
0.038
0.029
0.005
-0.013
-0.051
-0.085
-0.087
-0.106
-0.119
-0.123
-0.142
-0.174
-0.131
-0.137
-0.134
-0.133
-0.14
-0.12
-0.107
-0.107
-0.112
-0.103
-0.083
-0.08
-0.082
-0.091
-0.098
-0.071
0.003
0.087
0.211
0.389
0.51
0.643
0.688
0.428
-0.04
-0.523
-1.011
-1.154
-1.09
-0.887
-0.718
-0.466
-0.196
-0.011
0.099
0.145
0.158
0.183
0.202
0.22
0.228
0.231
0.235
0.233
0.242
0.229
0.25
0.258
0.268
0.266
0.276
0.284
0.288
0.295
0.295
0.299
0.299
0.296
0.319
0.319
0.324
0.325
0.332
0.338
0.331
0.332
0.323
0.313
0.319
0.293
0.275
0.249
0.251
0.222
0.205
0.19
0.163
0.14
0.128
0.09
0.097
0.058
0.053
0.017
-0.016
-0.026
-0.062
-0.081
-0.104
-0.119
-0.139
-0.157
-0.191
-0.192
-0.211
-0.202
-0.217
-0.215
-0.231
-0.224
-0.214
-0.199
-0.198
-0.198
-0.184
-0.174
-0.171
-0.186
-0.165
-0.153
-0.155
-0.156
-0.146
-0.126
-0.132
-0.115
-0.122
-0.109
-0.109
-0.113
-0.119
-0.11
-0.106
-0.113
-0.124
-0.109
-0.103
-0.104
-0.108
-0.111
-0.125
-0.11
-0.092
-0.109
-0.102
-0.079
-0.081
-0.062
-0.022
-0.009
-0.01
0.007
0.036
0.069
0.069
0.086
0.071
0.051
0.038
0.013
-0.011
-0.037
-0.081
-0.082
-0.103
-0.105
-0.127
-0.134
-0.135
-0.121
-0.128
-0.117
-0.122
-0.122
-0.12
-0.124
-0.093
-0.109
-0.093
-0.077
-0.072
-0.074
-0.071
-0.102
-0.059
0.016
0.099
0.231
0.399
0.506
0.649
0.687
0.393
-0.055
-0.554
-1.008
-1.114
-1.027
-0.854
-0.698
-0.487
-0.194
-0.01
0.079
0.119
0.158
0.162
0.189
0.193
0.202
0.21
0.207
0.229
0.229
0.228
0.238
0.248
0.235
0.252
0.254
0.251
0.275
0.267
0.275
0.289
0.299
0.293
0.3
0.3
0.322
0.322
0.319
0.326
0.331
0.315
0.305
0.319
0.315
0.306
0.262
0.264
0.259
0.235
0.202
0.189
0.168
0.155
0.132
0.108
0.08
0.055
0.047
0.013
-0.001
-0.023
-0.049
-0.076
-0.082
-0.111
-0.125
-0.147
-0.168
-0.191
-0.185
-0.195
-0.203
-0.207
-0.203
-0.201
-0.224
-0.219
-0.199
-0.17
-0.163
-0.161
-0.153
-0.141
-0.143
-0.135
-0.125
-0.119
-0.124
-0.108
-0.11
-0.096
-0.097
-0.097
-0.081
-0.092
-0.087
-0.097
-0.104
-0.107
-0.11
-0.102
-0.121
-0.088
-0.095
-0.098
-0.103
-0.105
-0.103
-0.105
-0.101
-0.108
-0.092
-0.088
-0.084
-0.082
-0.084
-0.082
-0.051
-0.027
-0.007
0.02
0.025
0.037
0.069
0.091
0.104
0.102
0.06
0.059
0.041
0.022
-0.012
-0.046
-0.07
-0.077
-0.079
-0.096
-0.109
-0.113
-0.096
-0.099
-0.102
-0.101
-0.099
-0.094
-0.094
-0.107
-0.079
-0.074
-0.072
-0.065
-0.073
-0.087
-0.091
-0.047
0.03
0.11
0.241
0.434
0.551
0.704
0.713
0.353
-0.093
-0.601
-0.993
-1.051
-0.95
-0.789
-0.622
-0.375
-0.149
0.031
0.113
0.165
0.178
0.192
0.213
0.204
0.218
0.226
0.233
0.25
0.247
0.25
0.257
0.266
0.269
0.264
0.252
0.298
0.294
0.29
0.302
0.296
0.315
0.319
0.331
0.337
0.342
0.341
0.33
0.344
0.346
0.326
0.331
0.321
0.328
0.31
0.291
0.269
0.245
0.232
0.205
0.187
0.166
0.157
0.127
0.1
0.067
0.067
0.048
0.02
0.004
-0.013
-0.058
-0.082
-0.082
-0.104
-0.114
-0.139
-0.163
-0.18
-0.182
-0.204
-0.209
-0.197
-0.199
-0.217
-0.184
-0.185
-0.17
-0.163
-0.167
-0.165
-0.137
-0.131
-0.133
-0.115
-0.116
-0.108
-0.108
-0.111
-0.11
-0.099
-0.096
-0.099
-0.105
-0.097
-0.093
-0.08
-0.087
-0.093
-0.084
-0.098
-0.091
-0.09
-0.078
-0.095
-0.1
-0.087
-0.092
-0.088
-0.102
-0.086
-0.095
-0.085
-0.08
-0.084
-0.09
-0.082
-0.08
-0.081
-0.065
-0.014
0.013
0.02
0.037
0.061
0.087
0.087
0.09
0.087
0.05
0.06
0.032
0.011
-0.025
-0.072
-0.072
-0.088
-0.095
-0.118
-0.108
-0.109
-0.108
-0.11
-0.111
-0.127
-0.121
-0.102
-0.096
-0.093
-0.085
-0.078
-0.088
-0.078
-0.066
-0.081
-0.075
-0.016
0.085
0.167
0.345
0.474
0.621
0.72
0.558
0.109
-0.351
-0.882
-1.073
-1.035
-0.89
-0.729
-0.543
-0.274
-0.083
0.042
0.12
0.15
0.166
0.189
0.186
0.175
0.183
0.21
0.231
0.236
0.234
0.246
0.234
0.259
0.254
0.265
0.271
0.26
0.273
0.272
0.3
0.295
0.303
0.306
0.3
0.323
0.316
0.314
0.316
0.328
0.319
0.31
0.298
0.309
0.292
0.29
0.27
0.242
0.238
0.213
0.196
0.165
0.15
0.134
0.112
0.098
0.074
0.03
0.01
0.008
-0.017
-0.049
-0.08
-0.091
-0.115
-0.135
-0.157
-0.161
-0.19
-0.2
-0.216
-0.219
-0.219
-0.228
-0.223
-0.223
-0.242
-0.227
-0.198
-0.194
-0.184
-0.195
-0.167
-0.161
-0.164
-0.149
-0.14
-0.152
-0.138
-0.143
-0.128
-0.129
-0.124
-0.11
-0.128
-0.11
-0.106
-0.105
-0.112
-0.119
-0.11
-0.103
-0.104
-0.114
-0.118
-0.116
-0.116
-0.131
-0.104
-0.114
-0.095
-0.086
-0.064
-0.045
-0.035
-0.027
-0.003
0.043
0.04
0.063
0.057
0.032
0.025
0.005
0.002
-0.037
-0.076
-0.1
-0.113
-0.124
-0.126
-0.134
-0.137
-0.138
-0.14
-0.136
-0.128
-0.143
-0.118
-0.123
-0.13
-0.108
-0.097
-0.102
-0.097
-0.087
-0.071
-0.097
-0.083
-0.002
0.106
0.197
0.377
0.504
0.649
0.743
0.479
0.046
-0.4
-0.916
-1.059
-1.001
-0.893
-0.741
-0.568
-0.317
-0.102
0.031
0.097
0.127
0.149
0.187
0.176
0.202
0.205
0.213
0.211
0.228
0.233
0.245
0.248
0.247
0.249
0.248
0.266
0.28
0.279
0.274
0.294
0.304
0.291
0.31
0.305
0.32
0.328
0.34
0.34
0.338
0.357
0.346
0.338
0.315
0.312
0.31
0.29
0.268
0.255
0.241
0.216
0.185
0.168
0.144
0.119
0.083
0.068
0.059
0.026
-0.002
-0.018
-0.036
-0.066
-0.102
-0.106
-0.127
-0.158
-0.159
-0.181
-0.181
-0.189
-0.194
-0.199
-0.195
-0.203
-0.21
-0.195
-0.183
-0.177
-0.183
-0.177
-0.162
-0.163
-0.151
-0.14
-0.144
-0.124
-0.127
-0.118
-0.119
-0.108
-0.094
-0.093
-0.094
-0.078
-0.086
-0.096
-0.101
-0.091
-0.083
-0.099
-0.091
-0.074
-0.083
-0.093
-0.087
-0.082
-0.043
-0.024
-0.015
0.009
-0.002
0.052
0.093
0.086
0.094
0.086
0.067
0.051
0.035
0.014
-0.027
-0.068
-0.073
-0.086
-0.101
-0.106
-0.106
-0.111
-0.114
-0.117
-0.109
-0.11
-0.125
-0.119
-0.094
-0.094
-0.091
-0.089
-0.089
-0.068
-0.067
-0.076
-0.084
-0.051
0.025
0.108
0.267
0.441
0.509
0.645
0.72
0.37
-0.073
-0.55
-1.022
-1.116
-1.049
-0.91
-0.76
-0.545
-0.271
-0.064
0.057
0.127
0.167
0.186
0.201
0.215
0.226
0.216
0.249
0.239
0.254
0.263
0.261
0.265
0.267
0.283
0.277
0.285
0.287
0.297
0.313
0.311
0.312
0.321
0.314
0.343
0.341
0.348
0.346
0.358
0.357
0.357
0.352
0.343
0.34
0.336
0.316
0.284
0.256
0.255
0.242
0.209
0.192
0.154
0.145
0.119
0.082
0.083
0.056
0.005
0.002
-0.027
-0.05
-0.077
-0.102
-0.126
-0.141
-0.167
-0.162
-0.184
-0.187
-0.189
-0.196
-0.205
-0.206
-0.198
-0.19
-0.2
-0.211
-0.183
-0.186
-0.164
-0.156
-0.178
-0.137
-0.148
-0.141
-0.132
-0.118
-0.113
-0.114
-0.106
-0.098
-0.099
-0.094
-0.097
-0.107
-0.094
-0.091
-0.095
-0.086
-0.105
-0.099
-0.099
-0.103
-0.087
-0.091
-0.076
-0.051
-0.019
-0.023
-0.003
0.002
0.035
0.048
0.064
0.08
0.071
0.062
0.03
-0.007
-0.019
-0.049
-0.085
-0.11
-0.129
-0.127
-0.134
-0.149
-0.131
-0.147
-0.158
-0.142
-0.139
-0.14
-0.145
-0.151
-0.143
-0.127
-0.119
-0.115
-0.115
-0.109
-0.122
-0.146
-0.073
-0.005
0.09
0.226
0.392
0.503
0.627
0.695
0.401
-0.108
-0.596
-1.071
-1.219
-1.145
-0.956
-0.783
-0.524
-0.24
-0.039
0.058
0.124
0.161
0.174
0.192
0.205
0.208
0.206
0.209
0.245
0.243
0.242
0.231
0.251
0.272
0.269
0.28
0.282
0.3
0.294
0.29
0.317
0.313
0.322
0.327
0.332
0.34
0.34
0.354
0.35
0.359
0.346
0.343
0.337
0.332
0.319
0.279
0.283
0.265
0.238
0.214
0.2
0.19
0.144
0.114
0.114
0.093
0.064
0.027
0.019
-0.01
-0.029
-0.06
-0.092
-0.12
-0.12
-0.136
-0.156
-0.175
-0.195
-0.203
-0.203
-0.216
-0.222
-0.217
-0.219
-0.218
-0.218
-0.204
-0.199
-0.197
-0.179
-0.183
-0.173
-0.151
-0.151
-0.127
-0.13
-0.162
-0.109
-0.107
-0.096
-0.096
-0.099
-0.1
-0.102
-0.101
-0.089
-0.093
-0.089
-0.076
-0.088
-0.099
-0.083
-0.087
-0.09
-0.098
-0.101
-0.099
-0.088
-0.102
-0.104
-0.09
-0.103
-0.102
-0.091
-0.062
-0.006
0
0.007
0.026
0.056
0.069
0.076
0.073
0.063
0.048
0.045
0.011
-0.016
-0.067
-0.074
-0.092
-0.113
-0.118
-0.123
-0.126
-0.136
-0.126
-0.125
-0.133
-0.114
-0.125
-0.132
-0.108
-0.107
-0.112
-0.102
-0.089
-0.083
-0.087
-0.093
-0.076
-0.025
0.078
0.173
0.336
0.468
0.555
0.69
0.547
0.065
-0.415
-0.925
-1.148
-1.147
-0.973
-0.802
-0.559
-0.282
-0.054
0.053
0.107
0.168
0.178
0.204
0.208
0.223
0.216
0.245
0.253
0.256
0.252
0.263
0.269
0.274
0.249
0.27
0.276
0.285
0.297
0.297
0.299
0.311
0.316
0.297
0.327
0.341
0.333
0.317
0.332
0.346
0.333
0.337
0.332
0.325
0.32
0.304
0.286
0.269
0.244
0.222
0.2
0.196
0.169
0.14
0.106
0.106
0.069
0.035
-0.006
-0.028
-0.045
-0.061
-0.048
-0.088
-0.115
-0.135
-0.144
-0.165
-0.188
-0.193
-0.211
-0.22
-0.219
-0.222
-0.222
-0.22
-0.231
-0.204
-0.203
-0.2
-0.195
-0.175
-0.168
-0.157
-0.154
-0.15
-0.15
-0.119
-0.131
-0.113
-0.121
-0.109
-0.085
-0.081
-0.082
-0.087
-0.079
-0.075
-0.079
-0.08
-0.089
-0.094
-0.091
-0.084
-0.09
-0.102
-0.08
-0.094
-0.097
-0.102
-0.109
-0.102
-0.082
-0.089
-0.086
-0.077
-0.086
-0.094
-0.093
-0.08
-0.104
-0.07
-0.057
-0.065
-0.075
-0.038
-0.007
0.003
0.027
0.034
0.067
0.075
0.092
0.094
0.098
0.077
0.073
0.053
0.022
-0.002
-0.046
-0.046
-0.059
-0.073
-0.083
-0.09
-0.081
-0.09
-0.098
-0.079
-0.08
-0.091
-0.076
-0.066
-0.092
-0.064
-0.055
-0.055
-0.059
-0.056
-0.066
-0.065
-0.034
0.092
0.156
0.319
0.466
0.578
0.704
0.631
0.21
-0.243
-0.775
-1.063
-1.092
-0.938
-0.775
-0.585
-0.317
-0.083
0.059
0.126
0.159
0.188
0.207
0.204
0.206
0.236
0.227
0.239
0.249
0.247
0.258
0.249
0.285
0.285
0.282
0.285
0.298
0.31
0.31
0.317
0.324
0.331
0.334
0.337
0.353
0.358
0.355
0.356
0.358
0.36
0.351
0.352
0.34
0.338
0.322
0.306
0.274
0.268
0.245
0.214
0.186
0.164
0.141
0.096
0.124
0.096
0.063
0.034
0.002
-0.006
-0.032
-0.063
-0.085
-0.104
-0.128
-0.145
-0.162
-0.168
-0.185
-0.203
-0.195
-0.217
-0.231
-0.2
-0.208
-0.212
-0.218
-0.194
-0.188
-0.189
-0.172
-0.179
-0.174
-0.15
-0.144
-0.124
-0.116
-0.111
-0.109
-0.101
-0.094
-0.093
-0.093
-0.094
-0.092
-0.096
-0.099
-0.079
-0.075
-0.09
-0.087
-0.095
-0.092
-0.094
-0.11
-0.091
-0.094
-0.104
-0.097
-0.101
-0.099
-0.114
-0.083
-0.092
-0.095
-0.094
-0.092
-0.106
-0.092
-0.085
-0.088
-0.088
-0.095
-0.083
-0.073
-0.066
-0.07
-0.07
-0.056
-0.056
-0.046
-0.044
-0.047
-0.046
-0.032
-0.036
0.007
0.018
0.031
0.059
0.049
0.064
0.111
0.131
0.121
0.128
0.118
0.095
0.081
0.074
0.044
0.018
0.011
-0.016
-0.034
-0.039
-0.044
-0.054
-0.065
-0.065
-0.059
-0.052
-0.05
-0.052
-0.054
-0.067
-0.041
-0.036
-0.022
-0.024
-0.025
-0.025
-0.03
-0.017
0.038
0.132
0.233
0.39
0.514
0.65
0.76
0.611
0.156
-0.295
-0.825
-1.062
-1.029
-0.879
-0.717
-0.544
-0.295
-0.066
0.053
0.139
0.157
0.187
0.202
0.231
0.222
0.223
0.235
0.246
0.264
0.257
0.259
0.271
0.272
0.275
0.268
0.274
0.285
0.288
0.294
0.302
0.305
0.307
0.309
0.308
0.319
0.333
0.339
0.325
0.339
0.35
0.351
0.337
0.328
0.323
0.293
0.28
0.275
0.271
0.234
0.221
0.197
0.182
0.153
0.116
0.116
0.098
0.072
0.035
0.013
-0.007
-0.034
-0.059
-0.079
-0.098
-0.123
-0.14
-0.181
-0.182
-0.201
-0.213
-0.226
-0.236
-0.232
-0.235
-0.215
-0.224
-0.225
-0.213
-0.204
-0.209
-0.201
-0.196
-0.186
-0.176
-0.17
-0.171
-0.152
-0.141
-0.143
-0.137
-0.133
-0.124
-0.112
-0.116
-0.113
-0.113
-0.117
-0.134
-0.105
-0.121
-0.099
-0.106
-0.116
-0.124
-0.117
-0.13
-0.11
-0.099
-0.102
-0.101
-0.078
-0.053
-0.045
-0.031
-0.024
0.023
0.02
0.057
0.06
0.043
0.053
0.024
-0.018
-0.025
-0.071
-0.088
-0.095
-0.127
-0.133
-0.134
-0.13
-0.134
-0.143
-0.147
-0.147
-0.129
-0.137
-0.128
-0.123
-0.123
-0.123
-0.127
-0.104
-0.116
-0.104
-0.107
-0.104
-0.092
-0.007
0.093
0.21
0.39
0.513
0.653
0.676
0.334
-0.079
-0.56
-1.008
-1.104
-1.026
-0.89
-0.763
-0.541
-0.294
-0.104
0.024
0.103
0.133
0.124
0.151
0.181
0.208
0.196
0.197
0.204
0.217
0.225
0.231
0.226
0.222
0.252
0.248
0.26
0.265
0.263
0.256
0.264
0.286
0.292
0.294
0.297
0.32
0.301
0.324
0.322
0.342
0.329
0.318
0.329
0.32
0.299
0.295
0.275
0.267
0.249
0.226
0.214
0.19
0.162
0.131
0.111
0.084
0.059
0.019
-0.011
-0.019
-0.049
-0.08
-0.091
-0.113
-0.133
-0.156
-0.183
-0.177
-0.193
-0.226
-0.215
-0.203
-0.217
-0.219
-0.223
-0.203
-0.213
-0.196
-0.19
-0.197
-0.198
-0.189
-0.165
-0.167
-0.154
-0.153
-0.133
-0.126
-0.115
-0.113
-0.103
-0.096
-0.104
-0.094
-0.091
-0.086
-0.074
-0.077
-0.084
-0.072
-0.097
-0.071
-0.081
-0.085
-0.063
-0.09
-0.083
-0.074
-0.068
-0.092
-0.076
-0.073
-0.056
-0.063
-0.031
0.006
-0.003
0.025
0.052
0.082
0.095
0.106
0.106
0.092
0.081
0.062
0.035
0
-0.028
-0.042
-0.059
-0.085
-0.079
-0.084
-0.084
-0.087
-0.096
-0.1
-0.079
-0.076
-0.086
-0.081
-0.061
-0.078
-0.064
-0.064
-0.042
-0.047
-0.047
-0.063
-0.037
0.044
0.158
0.27
0.448
0.555
0.656
0.717
0.461
-0.031
-0.502
-1.007
-1.176
-1.141
-0.952
-0.783
-0.554
-0.271
-0.043
0.066
0.139
0.158
0.21
0.196
0.217
0.251
0.237
0.231
0.263
0.259
0.252
0.259
0.256
0.277
0.272
0.282
0.291
0.302
0.296
0.3
0.311
0.325
0.324
0.323
0.334
0.336
0.329
0.347
0.345
0.355
0.363
0.358
0.346
0.346
0.339
0.315
0.303
0.283
0.27
0.26
0.216
0.196
0.186
0.146
0.117
0.108
0.081
0.05
0.013
-0.007
-0.049
-0.052
-0.088
-0.109
-0.133
-0.147
-0.17
-0.19
-0.205
-0.209
-0.212
-0.227
-0.232
-0.237
-0.237
-0.242
-0.249
-0.249
-0.242
-0.217
-0.211
-0.213
-0.195
-0.176
-0.188
-0.177
-0.157
-0.157
-0.151
-0.163
-0.135
-0.128
-0.145
-0.122
-0.117
-0.111
-0.098
-0.115
-0.111
-0.102
-0.101
-0.109
-0.108
-0.111
-0.094
-0.101
-0.098
-0.101
-0.103
-0.104
-0.086
-0.049
-0.016
-0.008
-0.008
0.025
0.054
0.059
0.053
0.068
0.046
0.038
0.019
-0.01
-0.06
-0.072
-0.097
-0.116
-0.127
-0.142
-0.149
-0.156
-0.152
-0.16
-0.156
-0.165
-0.134
-0.145
-0.143
-0.14
-0.134
-0.134
-0.119
-0.112
-0.104
-0.102
-0.117
-0.11
-0.042
0.052
0.15
0.323
0.458
0.572
0.683
0.537
0.062
-0.4
-0.939
-1.217
-1.225
-1.051
-0.87
-0.607
-0.312
-0.075
0.06
0.135
0.147
0.197
0.213
0.227
0.226
0.243
0.247
0.266
0.26
0.271
0.272
0.28
0.283
0.288
0.291
0.306
0.312
0.307
0.316
0.319
0.328
0.324
0.331
0.347
0.362
0.366
0.367
0.354
0.355
0.375
0.359
0.345
0.337
0.334
0.313
0.286
0.267
0.257
0.229
0.202
0.183
0.157
0.134
0.112
0.083
0.062
0.024
-0.002
-0.026
-0.049
-0.065
-0.096
-0.136
-0.145
-0.153
-0.167
-0.186
-0.194
-0.218
-0.219
-0.232
-0.24
-0.225
-0.23
-0.228
-0.228
-0.217
-0.218
-0.224
-0.202
-0.181
-0.183
-0.191
-0.187
-0.174
-0.147
-0.138
-0.13
-0.114
-0.128
-0.104
-0.114
-0.111
-0.104
-0.096
-0.112
-0.095
-0.093
-0.084
-0.087
-0.082
-0.085
-0.085
-0.1
-0.077
-0.091
-0.086
-0.099
-0.093
-0.085
-0.088
-0.085
-0.087
-0.088
-0.084
-0.077
-0.088
-0.081
-0.08
-0.076
-0.067
-0.071
-0.068
-0.054
-0.051
-0.028
0.006
0.042
0.041
0.093
0.116
0.11
0.122
0.118
0.1
0.086
0.067
0.038
0.014
-0.033
-0.045
-0.05
-0.064
-0.062
-0.065
-0.079
-0.092
-0.072
-0.063
-0.068
-0.063
-0.078
-0.061
-0.04
-0.041
-0.043
-0.029
-0.04
-0.027
-0.026
-0.033
0
0.093
0.17
0.331
0.479
0.589
0.72
0.699
0.336
-0.15
-0.647
-1.055
-1.102
-0.987
-0.805
-0.635
-0.326
-0.085
0.061
0.151
0.192
0.21
0.218
0.221
0.248
0.25
0.258
0.27
0.273
0.265
0.268
0.289
0.301
0.308
0.302
0.313
0.33
0.323
0.329
0.328
0.338
0.332
0.34
0.346
0.357
0.356
0.371
0.371
0.371
0.386
0.379
0.35
0.348
0.356
0.338
0.328
0.312
0.289
0.253
0.233
0.228
0.193
0.183
0.151
0.136
0.111
0.082
0.05
0.029
0
-0.021
-0.032
-0.07
-0.103
-0.116
-0.141
-0.181
-0.175
-0.176
-0.182
-0.204
-0.211
-0.213
-0.208
-0.209
-0.218
-0.219
-0.193
-0.195
-0.195
-0.191
-0.17
-0.163
-0.174
-0.145
-0.147
-0.134
-0.127
-0.127
-0.129
-0.135
-0.119
-0.121
-0.098
-0.112
-0.118
-0.099
-0.101
-0.131
-0.11
-0.108
-0.104
-0.105
-0.108
-0.111
-0.123
-0.12
-0.111
-0.113
-0.125
-0.114
-0.112
-0.11
-0.111
-0.123
-0.126
-0.112
-0.109
-0.113
-0.092
-0.097
-0.088
-0.098
-0.098
-0.086
-0.074
-0.076
-0.079
-0.075
-0.053
-0.026
0.003
0.011
0.021
0.039
0.088
0.078
0.085
0.1
0.073
0.053
0.035
-0.001
-0.008
-0.027
-0.069
-0.095
-0.082
-0.086
-0.097
-0.105
-0.096
-0.101
-0.1
-0.094
-0.095
-0.093
-0.098
-0.083
-0.073
-0.076
-0.068
-0.073
-0.053
-0.052
-0.066
-0.042
0.01
0.128
0.231
0.428
0.531
0.695
0.724
0.431
-0.021
-0.523
-0.961
-1.055
-0.978
-0.821
-0.666
-0.426
-0.166
0.01
0.113
0.147
0.163
0.201
0.217
0.217
0.214
0.225
0.228
0.243
0.228
0.238
0.233
0.241
0.272
0.262
0.271
0.28
0.276
0.268
0.29
0.294
0.282
0.293
0.318
0.313
0.326
0.327
0.324
0.327
0.331
0.332
0.314
0.315
0.309
0.293
0.276
0.251
0.244
0.216
0.195
0.17
0.173
0.131
0.104
0.097
0.079
0.059
0.038
0.006
-0.026
-0.048
-0.063
-0.095
-0.119
-0.14
-0.156
-0.169
-0.191
-0.208
-0.223
-0.242
-0.23
-0.244
-0.234
-0.232
-0.245
-0.24
-0.234
-0.244
-0.232
-0.237
-0.205
-0.199
-0.184
-0.19
-0.187
-0.165
-0.15
-0.15
-0.145
-0.143
-0.149
-0.131
-0.121
-0.123
-0.118
-0.113
-0.112
-0.113
-0.117
-0.115
-0.116
-0.104
-0.103
-0.101
-0.119
-0.124
-0.105
-0.099
-0.12
-0.108
-0.118
-0.123
-0.118
-0.13
-0.107
-0.094
-0.093
-0.098
-0.102
-0.104
-0.085
-0.085
-0.078
-0.077
-0.085
-0.067
-0.077
-0.071
-0.058
-0.051
-0.037
-0.011
0.027
0.044
0.036
0.065
0.097
0.107
0.119
0.108
0.086
0.074
0.063
0.032
0.008
-0.026
-0.025
-0.043
-0.053
-0.071
-0.079
-0.067
-0.069
-0.077
-0.088
-0.076
-0.064
-0.079
-0.077
-0.06
-0.045
-0.038
-0.034
-0.032
-0.035
-0.026
-0.047
-0.027
0.035
0.106
0.241
0.418
0.516
0.662
0.715
0.453
0.007
-0.475
-0.957
-1.067
-1.003
-0.842
-0.67
-0.45
-0.16
0.015
0.105
0.17
0.189
0.201
0.236
0.237
0.249
0.255
0.262
0.273
0.263
0.264
0.282
0.28
0.281
0.284
0.291
0.303
0.307
0.308
0.306
0.317
0.326
0.309
0.307
0.336
0.34
0.359
0.352
0.351
0.348
0.342
0.348
0.328
0.332
0.334
0.31
0.297
0.282
0.261
0.238
0.225
0.204
0.189
0.16
0.13
0.11
0.092
0.068
0.031
0.008
-0.004
-0.035
-0.083
-0.086
-0.112
-0.139
-0.164
-0.154
-0.171
-0.186
-0.203
-0.217
-0.218
-0.217
-0.212
-0.216
-0.232
-0.197
-0.184
-0.18
-0.176
-0.175
-0.17
-0.171
-0.145
-0.149
-0.141
-0.126
-0.119
-0.119
-0.104
-0.108
-0.114
-0.114
-0.112
-0.088
-0.097
-0.101
-0.107
-0.093
-0.1
-0.097
-0.1
-0.105
-0.122
-0.088
-0.1
-0.095
-0.103
-0.111
-0.116
-0.088
-0.09
-0.104
-0.102
-0.095
-0.098
-0.089
-0.079
-0.052
-0.023
-0.021
0.003
-0.001
0.037
0.08
0.072
0.079
0.079
0.059
0.048
0.026
-0.002
-0.001
-0.043
-0.061
-0.076
-0.085
-0.093
-0.102
-0.1
-0.102
-0.092
-0.091
-0.1
-0.095
-0.094
-0.084
-0.084
-0.072
-0.09
-0.067
-0.062
-0.062
-0.048
-0.065
-0.054
0.011
0.105
0.254
0.418
0.519
0.689
0.718
0.403
-0.032
-0.52
-0.983
-1.057
-0.972
-0.826
-0.673
-0.474
-0.235
-0.033
0.074
0.122
0.156
0.188
0.191
0.195
0.198
0.235
0.238
0.242
0.247
0.235
0.254
0.264
0.26
0.274
0.279
0.285
0.274
0.282
0.303
0.317
0.319
0.316
0.321
0.332
0.329
0.345
0.326
0.338
0.362
0.349
0.348
0.326
0.356
0.345
0.311
0.306
0.269
0.248
0.232
0.21
0.191
0.165
0.142
0.113
0.087
0.061
0.049
0.014
0
-0.035
-0.061
-0.08
-0.104
-0.122
-0.15
-0.194
-0.165
-0.187
-0.201
-0.227
-0.216
-0.224
-0.228
-0.226
-0.236
-0.211
-0.211
-0.208
-0.207
-0.192
-0.186
-0.183
-0.168
-0.169
-0.164
-0.148
-0.132
-0.129
-0.131
-0.121
-0.117
-0.108
-0.107
-0.111
-0.118
-0.087
-0.105
-0.099
-0.102
-0.113
-0.083
-0.095
-0.089
-0.079
-0.092
-0.07
-0.044
-0.019
-0.007
-0.008
0.011
0.044
0.073
0.071
0.081
0.071
0.054
0.032
-0.002
-0.017
-0.047
-0.075
-0.1
-0.121
-0.145
-0.137
-0.133
-0.132
-0.138
-0.137
-0.124
-0.133
-0.126
-0.129
-0.136
-0.126
-0.125
-0.108
-0.102
-0.094
-0.094
-0.097
-0.11
-0.092
-0.023
0.073
0.197
0.379
0.484
0.618
0.719
0.464
0.017
-0.44
-0.919
-1.073
-1.03
-0.922
-0.767
-0.575
-0.315
-0.107
0.032
0.117
0.142
0.136
0.181
0.206
0.209
0.205
0.212
0.224
0.234
0.238
0.231
0.242
0.253
0.254
0.243
0.25
0.267
0.285
0.281
0.28
0.304
0.309
0.311
0.316
0.297
0.325
0.329
0.343
0.348
0.346
0.345
0.33
0.325
0.313
0.3
0.286
0.265
0.253
0.232
0.206
0.188
0.168
0.139
0.119
0.076
0.068
0.04
0.006
-0.019
-0.033
-0.081
-0.086
-0.109
-0.128
-0.152
-0.172
-0.187
-0.193
-0.207
-0.211
-0.229
-0.231
-0.231
-0.234
-0.219
-0.224
-0.212
-0.208
-0.218
-0.196
-0.186
-0.212
-0.158
-0.158
-0.151
-0.143
-0.138
-0.144
-0.132
-0.124
-0.118
-0.143
-0.121
-0.103
-0.107
-0.122
-0.127
-0.123
-0.108
-0.122
-0.129
-0.116
-0.108
-0.102
-0.11
-0.12
-0.11
-0.103
-0.096
-0.073
-0.06
-0.017
-0.024
-0.008
0.032
0.033
0.059
0.068
0.054
0.026
0.015
-0.017
-0.043
-0.058
-0.101
-0.111
-0.145
-0.13
-0.138
-0.154
-0.138
-0.148
-0.156
-0.141
-0.133
-0.13
-0.127
-0.12
-0.113
-0.107
-0.107
-0.092
-0.082
-0.097
-0.085
-0.089
-0.061
0.03
0.112
0.262
0.413
0.512
0.675
0.675
0.321
-0.167
-0.652
-1.089
-1.16
-1.04
-0.864
-0.692
-0.43
-0.17
0.025
0.108
0.138
0.174
0.198
0.204
0.207
0.22
0.218
0.213
0.252
0.249
0.242
0.26
0.264
0.267
0.253
0.284
0.282
0.287
0.29
0.3
0.294
0.319
0.321
0.328
0.331
0.326
0.331
0.357
0.36
0.353
0.353
0.335
0.353
0.338
0.314
0.315
0.291
0.268
0.252
0.227
0.199
0.194
0.17
0.125
0.126
0.093
0.069
0.028
0.014
-0.012
-0.05
-0.083
-0.098
-0.112
-0.129
-0.147
-0.182
-0.195
-0.209
-0.236
-0.216
-0.229
-0.246
-0.231
-0.242
-0.236
-0.219
-0.208
-0.204
-0.203
-0.19
-0.188
-0.182
-0.159
-0.16
-0.157
-0.13
-0.139
-0.132
-0.123
-0.104
-0.116
-0.091
-0.091
-0.08
-0.082
-0.089
-0.096
-0.088
-0.077
-0.1
-0.108
-0.093
-0.1
-0.09
-0.107
-0.086
-0.093
-0.089
-0.094
-0.066
-0.031
-0.027
-0.033
-0.012
0.051
0.068
0.08
0.086
0.075
0.056
0.035
0.01
-0.008
-0.042
-0.072
-0.098
-0.105
-0.115
-0.127
-0.125
-0.137
-0.125
-0.121
-0.127
-0.139
-0.114
-0.122
-0.104
-0.092
-0.096
-0.104
-0.074
-0.076
-0.071
-0.083
-0.093
-0.046
0.01
0.109
0.25
0.421
0.521
0.665
0.71
0.402
-0.066
-0.551
-1.02
-1.122
-1.042
-0.87
-0.7
-0.445
-0.177
-0.004
0.086
0.13
0.185
0.197
0.211
0.215
0.206
0.249
0.245
0.25
0.257
0.253
0.264
0.262
0.274
0.277
0.288
0.294
0.303
0.309
0.309
0.311
0.331
0.335
0.324
0.348
0.353
0.362
0.363
0.352
0.36
0.375
0.329
0.342
0.358
0.337
0.318
0.309
0.282
0.256
0.244
0.192
0.193
0.172
0.158
0.128
0.098
0.074
0.054
0.023
-0.001
-0.027
-0.051
-0.085
-0.107
-0.11
-0.136
-0.154
-0.186
-0.19
-0.17
-0.182
-0.199
-0.209
-0.197
-0.199
-0.198
-0.19
-0.201
-0.177
-0.18
-0.158
-0.148
-0.144
-0.148
-0.111
-0.107
-0.105
-0.1
-0.087
-0.09
-0.079
-0.092
-0.061
-0.065
-0.086
-0.062
-0.049
-0.057
-0.065
-0.058
-0.057
-0.064
-0.074
-0.092
-0.068
-0.071
-0.071
-0.08
-0.083
-0.081
-0.074
-0.063
-0.074
-0.086
-0.075
-0.053
-0.03
0.002
0.026
0.024
0.05
0.073
0.072
0.082
0.095
0.068
0.07
0.034
0.018
0.004
-0.041
-0.065
-0.074
-0.087
-0.1
-0.096
-0.114
-0.112
-0.118
-0.103
-0.109
-0.112
-0.112
-0.114
-0.1
-0.102
-0.111
-0.088
-0.083
-0.074
-0.091
-0.1
-0.071
-0.03
0.064
0.136
0.3
0.446
0.572
0.704
0.562
0.117
-0.339
-0.872
-1.096
-1.083
-0.92
-0.759
-0.563
-0.294
-0.084
0.044
0.112
0.133
0.152
0.174
0.181
0.195
0.198
0.21
0.214
0.217
0.222
0.216
0.246
0.227
0.246
0.237
0.259
0.276
0.269
0.277
0.292
0.295
0.294
0.301
0.317
0.322
0.324
0.321
0.334
0.328
0.332
0.325
0.315
0.305
0.3
0.293
0.263
0.249
0.228
0.217
0.205
0.174
0.155
0.136
0.125
0.09
0.069
0.054
0.016
-0.011
-0.026
-0.062
-0.078
-0.102
-0.12
-0.144
-0.17
-0.185
-0.191
-0.193
-0.213
-0.225
-0.224
-0.227
-0.216
-0.231
-0.23
-0.242
-0.217
-0.217
-0.195
-0.192
-0.192
-0.166
-0.167
-0.159
-0.13
-0.134
-0.132
-0.126
-0.118
-0.11
-0.112
-0.105
-0.088
-0.105
-0.092
-0.094
-0.088
-0.088
-0.093
-0.099
-0.097
-0.102
-0.112
-0.116
-0.091
-0.086
-0.108
-0.096
-0.123
-0.071
-0.088
-0.096
-0.082
-0.074
-0.075
-0.049
-0.012
0.004
0.021
0.06
0.084
0.09
0.102
0.11
0.09
0.086
0.077
0.052
0.014
-0.02
-0.064
-0.063
-0.059
-0.072
-0.091
-0.095
-0.095
-0.085
-0.092
-0.071
-0.09
-0.085
-0.104
-0.058
-0.063
-0.061
-0.059
-0.05
-0.046
-0.041
-0.05
-0.053
-0.008
0.086
0.164
0.338
0.47
0.589
0.738
0.626
0.187
-0.248
-0.789
-1.042
-1.062
-0.926
-0.766
-0.572
-0.307
-0.083
0.057
0.13
0.158
0.176
0.196
0.214
0.228
0.227
0.237
0.244
0.254
0.245
0.233
0.25
0.279
0.276
0.268
0.261
0.284
0.282
0.291
0.301
0.307
0.31
0.294
0.328
0.336
0.341
0.341
0.342
0.345
0.349
0.346
0.328
0.327
0.327
0.321
0.282
0.277
0.254
0.248
0.224
0.198
0.171
0.145
0.121
0.105
0.085
0.054
0.02
0
-0.031
-0.057
-0.083
-0.111
-0.11
-0.132
-0.153
-0.185
-0.207
-0.214
-0.218
-0.227
-0.238
-0.239
-0.242
-0.248
-0.244
-0.245
-0.21
-0.229
-0.179
-0.19
-0.178
-0.173
-0.164
-0.163
-0.154
-0.135
-0.128
-0.136
-0.123
-0.103
-0.106
-0.102
-0.099
-0.099
-0.106
-0.106
-0.099
-0.115
-0.091
-0.117
-0.105
-0.115
-0.126
-0.09
-0.109
-0.132
-0.113
-0.106
-0.097
-0.074
-0.053
-0.026
-0.026
-0.011
0.037
0.052
0.046
0.056
0.062
0.036
0.035
0.003
-0.024
-0.068
-0.08
-0.092
-0.118
-0.136
-0.116
-0.115
-0.131
-0.137
-0.119
-0.117
-0.123
-0.123
-0.114
-0.119
-0.117
-0.112
-0.108
-0.087
-0.09
-0.086
-0.083
-0.094
-0.059
0.021
0.129
0.28
0.425
0.54
0.695
0.641
0.225
-0.17
-0.685
-1.055
-1.092
-1.003
-0.856
-0.713
-0.483
-0.231
-0.042
0.055
0.108
0.133
0.16
0.168
0.192
0.19
0.205
0.215
0.209
0.229
0.222
0.22
0.246
0.246
0.231
0.246
0.269
0.28
0.29
0.287
0.295
0.303
0.305
0.312
0.302
0.295
0.34
0.343
0.341
0.347
0.348
0.336
0.337
0.334
0.305
0.295
0.285
0.266
0.251
0.217
0.198
0.171
0.162
0.137
0.104
0.088
0.055
0.011
0.002
-0.012
-0.039
-0.06
-0.089
-0.118
-0.136
-0.153
-0.171
-0.175
-0.201
-0.207
-0.226
-0.231
-0.221
-0.22
-0.208
-0.215
-0.215
-0.205
-0.203
-0.195
-0.183
-0.173
-0.161
-0.15
-0.145
-0.138
-0.131
-0.139
-0.134
-0.095
-0.092
-0.084
-0.079
-0.086
-0.078
-0.071
-0.073
-0.074
-0.078
-0.078
-0.053
-0.072
-0.062
-0.064
-0.058
-0.072
-0.065
-0.06
-0.064
-0.04
-0.009
0.006
0.013
0.018
0.048
0.062
0.082
0.093
0.085
0.079
0.082
0.065
0.024
-0.006
-0.04
-0.087
-0.087
-0.093
-0.106
-0.107
-0.111
-0.123
-0.121
-0.122
-0.112
-0.113
-0.124
-0.112
-0.099
-0.101
-0.094
-0.101
-0.099
-0.073
-0.078
-0.082
-0.073
-0.005
0.103
0.179
0.385
0.506
0.594
0.727
0.551
0.075
-0.373
-0.911
-1.16
-1.136
-1
-0.814
-0.618
-0.331
-0.105
0.039
0.128
0.169
0.187
0.198
0.213
0.221
0.227
0.232
0.244
0.253
0.239
0.256
0.262
0.261
0.266
0.268
0.269
0.287
0.288
0.295
0.301
0.299
0.313
0.311
0.316
0.32
0.299
0.341
0.348
0.353
0.359
0.356
0.349
0.339
0.327
0.312
0.299
0.27
0.256
0.239
0.213
0.186
0.147
0.155
0.116
0.084
0.059
0.022
-0.003
-0.029
-0.056
-0.077
-0.096
-0.121
-0.136
-0.165
-0.162
-0.19
-0.214
-0.205
-0.214
-0.228
-0.229
-0.23
-0.24
-0.229
-0.228
-0.22
-0.218
-0.22
-0.211
-0.191
-0.184
-0.166
-0.177
-0.179
-0.142
-0.146
-0.143
-0.127
-0.115
-0.108
-0.112
-0.105
-0.111
-0.105
-0.107
-0.1
-0.103
-0.103
-0.104
-0.1
-0.104
-0.106
-0.086
-0.102
-0.101
-0.099
-0.103
-0.107
-0.092
-0.084
-0.043
-0.024
0.001
-0.011
0.011
0.021
0.035
0.08
0.07
0.065
0.054
0.028
0.003
-0.008
-0.035
-0.06
-0.095
-0.116
-0.119
-0.137
-0.14
-0.137
-0.14
-0.152
-0.143
-0.13
-0.129
-0.14
-0.111
-0.122
-0.104
-0.105
-0.103
-0.083
-0.1
-0.094
-0.082
-0.068
-0.001
0.111
0.205
0.379
0.505
0.609
0.675
0.507
-0.006
-0.485
-0.989
-1.193
-1.178
-0.975
-0.779
-0.545
-0.244
-0.013
0.101
0.159
0.193
0.203
0.238
0.239
0.235
0.248
0.275
0.285
0.284
0.278
0.286
0.296
0.298
0.292
0.307
0.307
0.319
0.32
0.336
0.342
0.34
0.346
0.359
0.363
0.375
0.38
0.37
0.371
