-0.278
-0.291
-0.293
-0.297
-0.295
-0.299
-0.292
-0.288
-0.286
-0.287
-0.278
-0.271
-0.264
-0.256
-0.255
-0.255
-0.246
-0.239
-0.234
-0.224
-0.218
-0.211
-0.205
-0.203
-0.198
-0.184
-0.184
-0.176
-0.176
-0.169
-0.166
-0.163
-0.16
-0.16
-0.151
-0.152
-0.14
-0.141
-0.138
-0.144
-0.136
-0.136
-0.134
-0.13
-0.133
-0.131
-0.13
-0.122
-0.118
-0.113
-0.113
-0.114
-0.112
-0.105
-0.109
-0.104
-0.103
-0.092
-0.1
-0.096
-0.092
-0.081
-0.08
-0.087
-0.077
-0.075
-0.064
-0.053
-0.034
-0.022
-0.032
-0.034
-0.044
-0.046
-0.041
-0.038
-0.019
-0.004
-0.021
-0.051
-0.055
-0.047
-0.042
-0.015
0.004
0.019
0.035
0.046
0.047
0.062
0.064
0.076
0.084
0.09
0.1
0.103
0.076
0.054
0.05
0.029
0.015
-0.005
-0.011
-0.023
-0.021
-0.029
-0.035
-0.047
-0.038
-0.031
-0.04
-0.044
-0.038
-0.024
-0.022
-0.021
-0.016
-0.011
-0.011
-0.011
-0.013
-0.01
-0.016
-0.006
0.059
0.17
0.29
0.469
0.581
0.708
0.765
0.565
0.046
-0.475
-0.963
-1.145
-1.099
-0.893
-0.674
-0.384
-0.123
0.053
0.143
0.191
0.206
0.22
0.245
0.261
0.255
0.263
0.271
0.279
0.275
0.271
0.279
0.289
0.287
0.283
0.292
0.296
0.295
0.29
0.299
0.308
0.323
0.32
0.318
0.327
0.339
0.336
0.337
0.346
0.351
0.355
0.35
0.358
0.363
0.363
0.354
0.35
0.349
0.338
0.319
0.309
0.297
0.285
0.26
0.235
0.222
0.203
0.174
0.142
0.125
0.105
0.072
0.028
-0.007
-0.028
-0.063
-0.102
-0.135
-0.142
-0.174
-0.224
-0.245
-0.262
-0.276
-0.281
-0.297
-0.244
-0.199
-0.153
-0.161
-0.27
-0.343
-0.391
-0.387
-0.359
-0.326
-0.3
-0.186
-0.126
-0.163
-0.248
-0.333
-0.356
-0.283
-0.144
-0.129
-0.174
-0.22
-0.254
-0.231
-0.199
-0.181
-0.186
-0.086
-0.002
-0.041
-0.13
-0.247
-0.234
-0.148
-0.062
-0.027
-0.004
-0.08
-0.164
-0.258
-0.268
-0.22
-0.139
-0.116
-0.141
-0.152
-0.162
-0.154
-0.157
-0.15
-0.072
0.053
0.151
0.063
-0.15
-0.201
-0.163
-0.155
-0.175
-0.205
-0.178
-0.148
-0.092
-0.076
-0.03
-0.005
0.011
0.035
0.062
0.018
0.023
0.019
0.139
0.232
0.206
0.142
0.043
-0.026
-0.07
-0.078
-0.065
-0.04
-0.04
-0.05
-0.011
-0.011
-0.034
-0.026
-0.037
-0.068
-0.028
0.002
0.04
0.007
-0.012
-0.084
-0.151
-0.113
-0.055
-0.069
-0.03
-0.022
-0.037
-0.016
0.002
0.091
0.18
0.262
0.424
0.706
0.92
0.94
0.571
0.008
-0.45
-0.942
-1.035
-0.98
-0.897
-0.752
-0.55
-0.273
-0.048
0.035
0.066
0.089
0.135
0.171
0.259
0.345
0.386
0.323
0.194
0.143
0.163
0.245
0.31
0.294
0.205
0.127
0.161
0.325
0.378
0.354
0.247
0.2
0.225
0.269
0.374
0.488
0.544
0.469
0.283
0.194
0.194
0.251
0.363
0.401
0.35
0.269
0.239
0.267
0.321
0.424
0.448
0.32
0.168
0.1
0.237
0.506
0.465
0.179
-0.079
-0.104
-0.04
0.077
0.097
-0.014
-0.14
-0.167
-0.192
-0.194
-0.167
-0.13
-0.161
-0.249
-0.295
-0.273
-0.124
0.012
0.04
-0.205
-0.381
-0.451
-0.373
-0.318
-0.281
-0.273
-0.305
-0.285
-0.234
-0.2
-0.213
-0.214
-0.176
-0.168
-0.187
-0.167
-0.144
-0.122
-0.089
-0.092
-0.137
-0.123
-0.113
-0.082
-0.089
-0.104
-0.165
-0.207
-0.233
-0.172
-0.131
-0.12
-0.089
-0.057
-0.054
-0.104
-0.134
-0.087
0.022
0.116
0.019
-0.12
-0.21
-0.178
-0.11
-0.1
-0.081
-0.063
-0.057
0.002
0.075
0.054
0.002
-0.021
0.025
0.115
0.238
0.244
0.047
-0.09
-0.113
-0.062
0.015
0.014
-0.07
-0.098
-0.086
-0.109
-0.118
-0.101
-0.103
-0.065
0.01
0.014
-0.069
-0.056
-0.041
-0.11
-0.146
-0.104
-0.068
0.012
0.074
0.026
-0.101
-0.137
-0.062
0.029
0.192
0.415
0.635
0.665
0.739
0.709
0.352
-0.089
-0.39
-0.747
-1.079
-1.225
-1.082
-0.812
-0.513
-0.219
-0.001
0.09
0.134
0.165
0.182
0.21
0.247
0.269
0.244
0.224
0.213
0.23
0.247
0.281
0.393
0.418
0.298
0.157
0.163
0.211
0.263
0.294
0.299
0.313
0.353
0.336
0.312
0.314
0.334
0.452
0.554
0.438
0.247
0.212
0.272
0.318
0.373
0.458
0.429
0.335
0.285
0.271
0.29
0.292
0.26
0.227
0.186
0.169
0.172
0.154
0.123
0.083
0.061
0.057
0.02
-0.028
-0.08
-0.135
-0.176
-0.204
-0.204
-0.217
-0.185
-0.126
-0.135
-0.257
-0.33
-0.329
-0.307
-0.276
-0.201
-0.155
-0.209
-0.276
-0.274
-0.235
-0.239
-0.223
0.007
0.234
0.006
-0.376
-0.439
-0.328
-0.244
-0.211
-0.209
-0.236
-0.241
-0.179
-0.112
-0.128
-0.137
-0.165
-0.108
-0.11
-0.133
-0.155
-0.105
-0.096
-0.084
0.012
0.071
-0.015
-0.21
-0.283
-0.223
-0.145
-0.116
-0.108
-0.09
-0.084
-0.074
-0.099
-0.101
-0.046
0.028
0.012
-0.047
-0.031
0.047
0.051
-0.003
-0.018
0.075
0.093
0.027
-0.03
-0.024
-0.008
-0.01
-0.043
-0.039
-0.043
-0.074
-0.088
-0.104
-0.09
-0.081
-0.079
-0.041
-0.028
-0.139
-0.169
-0.134
-0.082
-0.07
-0.078
-0.069
-0.049
-0.038
-0.048
-0.048
-0.042
-0.026
0.013
0.11
0.2
0.397
0.55
0.666
0.794
0.685
0.257
-0.262
-0.843
-1.124
-1.163
-1.008
-0.785
-0.544
-0.248
-0.055
0.07
0.136
0.181
0.205
0.221
0.228
0.245
0.237
0.242
0.253
0.254
0.25
0.267
0.275
0.274
0.272
0.267
0.294
0.311
0.268
0.272
0.283
0.293
0.307
0.318
0.335
0.347
0.342
0.357
0.348
0.363
0.375
0.388
0.385
0.372
0.362
0.374
0.35
0.348
0.36
0.348
0.325
0.311
0.283
0.259
0.23
0.207
0.189
0.159
0.122
0.082
0.06
0.035
-0.012
-0.053
-0.085
-0.108
-0.155
-0.188
-0.221
-0.227
-0.238
-0.275
-0.291
-0.287
-0.297
-0.309
-0.313
-0.313
-0.308
-0.299
-0.295
-0.287
-0.289
-0.299
-0.29
-0.236
-0.179
-0.138
-0.089
-0.138
-0.119
-0.165
-0.254
-0.323
-0.332
-0.237
-0.194
-0.17
-0.202
-0.252
-0.302
-0.261
-0.203
-0.18
-0.177
-0.061
0.042
0.06
-0.044
-0.144
-0.22
-0.158
-0.104
-0.126
-0.184
-0.263
-0.258
-0.238
-0.224
-0.212
-0.191
-0.163
-0.137
-0.131
-0.114
-0.079
-0.04
-0.024
-0.023
-0.026
-0.026
0.002
0.013
0.013
0.011
0.001
-0.029
-0.041
-0.046
-0.065
-0.09
-0.105
-0.099
-0.106
-0.11
-0.12
-0.125
-0.127
-0.116
-0.113
-0.109
-0.106
-0.102
-0.096
-0.101
-0.087
-0.077
-0.067
-0.063
-0.057
-0.058
-0.044
-0.053
-0.041
-0.002
0.132
0.233
0.412
0.547
0.672
0.787
0.651
0.178
-0.311
-0.858
-1.115
-1.117
-0.934
-0.732
-0.497
-0.22
0
0.117
0.176
0.205
0.233
0.249
0.257
0.256
0.263
0.273
0.283
0.281
0.279
0.289
0.303
0.305
0.301
0.293
0.303
0.306
0.307
0.312
0.324
0.334
0.33
0.336
0.346
0.357
0.356
0.363
0.368
0.381
0.385
0.388
0.387
0.399
0.399
0.397
0.391
0.387
0.38
0.368
0.353
0.333
0.319
0.291
0.271
0.249
0.227
0.193
0.162
0.123
0.09
0.06
0.017
-0.021
-0.057
-0.086
-0.106
-0.144
-0.171
-0.187
-0.202
-0.215
-0.241
-0.244
-0.247
-0.252
-0.257
-0.256
-0.255
-0.254
-0.25
-0.248
-0.238
-0.229
-0.222
-0.222
-0.212
-0.216
-0.207
-0.186
-0.178
-0.174
-0.165
-0.153
-0.148
-0.145
-0.135
-0.125
-0.124
-0.116
-0.109
-0.104
-0.108
-0.103
-0.103
-0.092
-0.097
-0.097
-0.094
-0.094
-0.084
-0.088
-0.083
-0.086
-0.078
-0.081
-0.083
-0.083
-0.068
-0.068
-0.068
-0.05
-0.023
-0.008
0.003
0.003
0.009
0.017
0.037
0.057
0.069
0.063
0.037
0.014
0.012
-0.005
-0.026
-0.06
-0.066
-0.059
-0.067
-0.085
-0.088
-0.086
-0.082
-0.082
-0.075
-0.071
-0.067
-0.072
-0.067
-0.057
-0.056
-0.056
-0.047
-0.043
-0.032
-0.033
-0.033
-0.032
-0.031
0.011
0.122
0.24
0.401
0.575
0.665
0.821
0.712
0.292
-0.166
-0.699
-1.047
-1.093
-0.992
-0.844
-0.687
-0.446
-0.174
0.011
0.114
0.164
0.187
0.21
0.228
0.237
0.241
0.25
0.258
0.267
0.268
0.27
0.272
0.274
0.283
0.291
0.286
0.289
0.289
0.289
0.292
0.299
0.307
0.309
0.313
0.319
0.326
0.332
0.338
0.34
0.352
0.355
0.355
0.347
0.353
0.353
0.352
0.336
0.335
0.323
0.306
0.291
0.297
0.27
0.219
0.205
0.176
0.16
0.13
0.094
0.055
0.028
-0.009
-0.044
-0.08
-0.104
-0.139
-0.16
-0.185
-0.207
-0.215
-0.228
-0.238
-0.248
-0.256
-0.26
-0.269
-0.273
-0.27
-0.267
-0.268
-0.257
-0.259
-0.257
-0.252
-0.24
-0.228
-0.218
-0.219
-0.21
-0.206
-0.196
-0.187
-0.183
-0.181
-0.174
-0.165
-0.164
-0.155
-0.147
-0.141
-0.14
-0.133
-0.134
-0.123
-0.125
-0.126
-0.131
-0.121
-0.123
-0.127
-0.126
-0.114
-0.112
-0.108
-0.108
-0.097
-0.066
-0.088
-0.073
-0.05
-0.01
0.046
0.04
-0.018
-0.079
-0.092
-0.044
0
-0.005
-0.001
0.019
0.006
-0.026
-0.075
-0.085
-0.076
-0.073
-0.055
-0.051
-0.04
-0.037
-0.094
-0.129
-0.155
-0.157
-0.125
-0.067
-0.022
-0.005
-0.043
-0.072
-0.158
-0.162
-0.133
-0.075
-0.086
-0.068
-0.063
-0.069
-0.07
-0.038
0.062
0.209
0.364
0.557
0.642
0.742
0.746
0.468
-0.029
-0.6
-1.091
-1.168
-1.083
-0.915
-0.805
-0.616
-0.379
-0.131
0.054
0.153
0.157
0.135
0.159
0.234
0.241
0.311
0.385
0.463
0.409
0.289
0.208
0.156
0.216
0.252
0.275
0.234
0.196
0.211
0.242
0.277
0.289
0.252
0.291
0.366
0.389
0.354
0.321
0.379
0.455
0.434
0.348
0.262
0.27
0.344
0.425
0.427
0.375
0.296
0.289
0.301
0.284
0.289
0.306
0.301
0.278
0.276
0.218
0.14
0.117
0.092
0.098
0.052
0.008
-0.111
-0.153
-0.134
-0.094
-0.153
-0.199
-0.223
-0.248
-0.288
-0.292
-0.27
-0.269
-0.244
-0.236
-0.234
-0.235
-0.131
-0.033
-0.041
-0.158
-0.289
-0.318
-0.334
-0.3
-0.238
-0.18
-0.121
-0.122
-0.173
-0.219
-0.223
-0.171
-0.11
-0.114
-0.127
-0.143
-0.138
-0.126
-0.141
-0.068
0.04
-0.034
-0.147
-0.18
-0.142
-0.08
-0.056
-0.051
-0.046
-0.062
-0.117
-0.135
-0.128
-0.134
-0.072
-0.06
-0.116
-0.151
-0.104
-0.064
0.037
0.095
0.022
-0.104
-0.166
-0.201
-0.089
0.049
0.083
0.001
-0.068
-0.071
-0.013
0.025
0.051
0.082
0.102
0.038
-0.008
-0.031
-0.014
-0.039
-0.014
0.129
0.152
-0.048
-0.202
-0.22
-0.194
-0.099
-0.064
-0.095
-0.152
-0.118
-0.088
-0.062
-0.036
-0.052
-0.051
-0.067
-0.051
0.022
0.04
-0.022
-0.096
-0.008
0.28
0.406
0.459
0.468
0.577
0.739
0.709
0.196
-0.409
-1.043
-1.27
-1.201
-1.032
-0.766
-0.522
-0.258
-0.071
0.009
0.05
0.12
0.167
0.201
0.316
0.376
0.311
0.219
0.169
0.147
0.188
0.245
0.403
0.492
0.379
0.232
0.152
0.147
0.194
0.274
0.324
0.307
0.28
0.265
0.286
0.316
0.34
0.361
0.354
0.352
0.355
0.394
0.408
0.379
0.387
0.423
0.403
0.341
0.308
0.327
0.32
0.283
0.26
0.211
0.176
0.178
0.18
0.132
0.118
0.112
0.073
0.02
0.032
0.018
-0.054
-0.161
-0.194
-0.218
-0.168
-0.072
-0.095
-0.249
-0.361
-0.315
-0.268
-0.16
-0.161
-0.243
-0.35
-0.38
-0.339
-0.273
-0.266
-0.281
-0.273
-0.251
-0.221
-0.211
-0.191
-0.143
-0.138
-0.199
-0.262
-0.202
-0.113
-0.14
-0.25
-0.247
-0.214
-0.174
-0.173
-0.15
-0.146
-0.14
-0.141
-0.133
-0.091
-0.083
-0.158
-0.14
-0.091
-0.09
-0.083
-0.115
-0.139
-0.116
-0.06
-0.079
-0.106
-0.147
-0.152
-0.146
-0.103
-0.105
-0.129
-0.106
-0.071
-0.075
-0.099
-0.079
-0.089
-0.093
-0.092
-0.056
-0.034
-0.042
-0.075
-0.09
-0.073
-0.048
-0.052
-0.054
-0.039
-0.013
-0.015
0.027
0.113
0.093
-0.034
-0.153
-0.131
-0.04
0.04
0.032
-0.057
-0.156
-0.097
-0.059
-0.042
-0.024
-0.023
0.009
0.01
0.027
0.054
0.09
0.137
0.184
0.198
0.139
0.021
0.017
0.077
0.112
0.083
0.061
0.015
-0.024
-0.028
-0.013
-0.024
-0.026
-0.024
-0.021
-0.033
-0.035
0.019
0.054
0.021
-0.035
-0.072
-0.062
-0.036
0.001
0.023
-0.004
-0.016
-0.022
-0.012
0.008
0.007
0.027
0.091
0.218
0.329
0.507
0.62
0.72
0.786
0.64
0.116
-0.391
-0.888
-1.115
-1.1
-0.925
-0.734
-0.514
-0.257
-0.055
0.08
0.164
0.206
0.22
0.216
0.238
0.247
0.247
0.269
0.29
0.296
0.29
0.291
0.311
0.326
0.327
0.306
0.305
0.308
0.311
0.327
0.329
0.327
0.321
0.33
0.327
0.349
0.356
0.36
0.362
0.356
0.36
0.359
0.382
0.399
0.381
0.367
0.356
0.362
0.371
0.362
0.336
0.309
0.3
0.275
0.243
0.217
0.215
0.189
0.155
0.118
0.097
0.042
-0.001
-0.029
-0.069
-0.065
-0.108
-0.146
-0.189
-0.195
-0.223
-0.248
-0.278
-0.283
-0.289
-0.304
-0.316
-0.319
-0.304
-0.303
-0.307
-0.3
-0.281
-0.274
-0.267
-0.27
-0.282
-0.283
-0.27
-0.255
-0.242
-0.235
-0.233
-0.219
-0.203
-0.167
-0.122
-0.113
-0.089
0.003
-0.016
-0.119
-0.22
-0.223
-0.254
-0.253
-0.225
-0.216
-0.195
-0.173
-0.167
-0.15
-0.147
-0.152
-0.05
0.031
0.132
0.082
-0.028
-0.178
-0.263
-0.19
-0.149
-0.077
-0.13
-0.199
-0.205
-0.155
-0.127
-0.113
-0.111
-0.081
-0.062
-0.068
-0.089
-0.065
-0.058
-0.041
-0.048
-0.049
-0.034
-0.037
-0.031
-0.037
-0.02
-0.014
-0.022
-0.033
-0.026
-0.027
-0.027
-0.034
-0.03
-0.017
-0.011
-0.021
-0.028
-0.01
-0.001
0.004
0.015
0.042
0.053
0.067
0.06
0.074
0.101
0.117
0.107
0.09
0.079
0.055
0.049
0.032
0.028
0.02
0.009
-0.007
-0.002
0.001
-0.012
-0.018
-0.017
-0.017
-0.011
-0.01
-0.011
0.002
0.009
0.008
0.012
0.032
0.039
0.037
0.029
0.035
0.027
0.031
0.058
0.176
0.266
0.434
0.589
0.678
0.785
0.764
0.42
-0.138
-0.645
-1.069
-1.189
-1.085
-0.858
-0.652
-0.364
-0.123
0.062
0.144
0.185
0.207
0.23
0.252
0.251
0.262
0.271
0.28
0.279
0.285
0.292
0.297
0.296
0.296
0.3
0.312
0.309
0.313
0.309
0.319
0.333
0.325
0.328
0.331
0.344
0.341
0.341
0.347
0.36
0.37
0.366
0.37
0.38
0.381
0.37
0.377
0.376
0.376
0.353
0.338
0.324
0.32
0.297
0.273
0.251
0.236
0.214
0.185
0.142
0.11
0.075
0.033
-0.002
-0.034
-0.059
-0.096
-0.129
-0.156
-0.179
-0.208
-0.223
-0.243
-0.256
-0.261
-0.269
-0.28
-0.277
-0.279
-0.285
-0.287
-0.271
-0.267
-0.275
-0.262
-0.263
-0.251
-0.249
-0.249
-0.248
-0.231
-0.229
-0.224
-0.212
-0.194
-0.19
-0.198
-0.184
-0.176
-0.166
-0.173
-0.163
-0.156
-0.149
-0.154
-0.162
-0.153
-0.136
-0.13
-0.133
-0.139
-0.136
-0.132
-0.136
-0.137
-0.127
-0.116
-0.124
-0.119
-0.115
-0.111
-0.126
-0.133
-0.124
-0.115
-0.104
-0.104
-0.097
-0.091
-0.078
-0.101
-0.104
-0.104
-0.096
-0.098
-0.094
-0.074
-0.078
-0.083
-0.078
-0.07
-0.07
-0.06
-0.062
-0.056
-0.048
-0.051
-0.061
-0.055
-0.059
-0.045
-0.047
-0.046
-0.041
-0.039
-0.038
-0.045
-0.027
-0.033
-0.036
-0.034
-0.023
-0.026
-0.009
-0.026
-0.021
-0.019
-0.012
-0.012
-0.008
-0.012
-0.008
-0.008
-0.006
-0.006
-0.001
-0.001
0.001
0.001
-0.003
0.007
0.008
0.011
0.012
0.007
0.004
0.006
0.009
0.008
0.014
0.018
0.021
0.022
0.039
0.059
0.081
0.084
0.093
0.096
0.112
0.127
0.126
0.13
0.123
0.092
0.067
0.069
0.041
0.026
0.011
0.005
-0.006
-0.005
-0.014
-0.023
-0.028
-0.025
-0.023
-0.024
-0.024
-0.017
-0.021
-0.026
-0.018
-0.018
-0.003
0.001
-0.004
-0.007
-0.005
-0.006
0.02
0.098
0.196
0.32
0.483
0.601
0.697
0.732
0.522
-0.008
-0.498
-0.946
-1.137
-1.099
-0.888
-0.676
-0.415
-0.166
0.023
0.116
0.159
0.179
0.203
0.221
0.239
0.235
0.24
0.247
0.259
0.252
0.25
0.258
0.267
0.262
0.261
0.268
0.271
0.278
0.272
0.28
0.289
0.3
0.292
0.299
0.3
0.321
0.313
0.318
0.32
0.325
0.326
0.315
0.319
0.327
0.326
0.325
0.323
0.324
0.323
0.305
0.3
0.288
0.276
0.255
0.242
0.233
0.218
0.191
0.16
0.137
0.106
0.074
0.027
-0.011
-0.055
-0.081
-0.123
-0.153
-0.179
-0.199
-0.234
-0.256
-0.27
-0.282
-0.295
-0.307
-0.308
-0.308
-0.307
-0.314
-0.316
-0.317
-0.31
-0.307
-0.302
-0.295
-0.287
-0.283
-0.279
-0.272
-0.269
-0.261
-0.257
-0.24
-0.233
-0.221
-0.22
-0.216
-0.212
-0.199
-0.197
-0.196
-0.187
-0.177
-0.177
-0.176
-0.166
-0.161
-0.155
-0.154
-0.143
-0.143
-0.135
-0.143
-0.142
-0.142
-0.137
-0.137
-0.142
-0.136
-0.133
-0.137
-0.139
-0.127
-0.124
-0.121
-0.12
-0.115
-0.115
-0.099
-0.098
-0.104
-0.094
-0.084
-0.082
-0.086
-0.089
-0.081
-0.071
-0.073
-0.065
-0.061
-0.058
-0.059
-0.049
-0.051
-0.044
-0.046
-0.041
-0.032
-0.025
-0.028
-0.027
-0.02
-0.023
-0.02
-0.015
-0.008
-0.002
0.007
0.008
0.016
0.01
0.012
0.028
0.043
0.061
0.072
0.076
0.077
0.101
0.115
0.136
0.136
0.129
0.098
0.076
0.067
0.062
0.042
0.017
0.006
0.011
0.006
0
-0.004
-0.011
-0.014
-0.019
-0.019
-0.013
-0.009
-0.01
0
-0.001
0.002
0.005
0.008
0.018
0.023
0.021
0.016
0.046
0.143
0.255
0.396
0.576
0.669
0.795
0.78
0.493
0.01
-0.498
-0.958
-1.068
-1.012
-0.873
-0.702
-0.504
-0.24
-0.046
0.103
0.168
0.2
0.226
0.242
0.251
0.256
0.261
0.269
0.273
0.278
0.283
0.288
0.292
0.285
0.288
0.293
0.298
0.297
0.302
0.299
0.309
0.314
0.312
0.318
0.325
0.334
0.34
0.342
0.343
0.357
0.355
0.363
0.362
0.367
0.368
0.367
0.355
0.359
0.355
0.337
0.323
0.315
0.303
0.281
0.264
0.237
0.219
0.184
0.164
0.127
0.101
0.066
0.028
-0.009
-0.041
-0.071
-0.108
-0.135
-0.158
-0.175
-0.196
-0.21
-0.226
-0.231
-0.246
-0.257
-0.261
-0.26
-0.263
-0.264
-0.261
-0.259
-0.252
-0.249
-0.245
-0.238
-0.233
-0.229
-0.218
-0.211
-0.199
-0.197
-0.191
-0.187
-0.175
-0.17
-0.16
-0.155
-0.151
-0.144
-0.136
-0.129
-0.128
-0.12
-0.12
-0.116
-0.119
-0.113
-0.11
-0.112
-0.119
-0.114
-0.109
-0.107
-0.106
-0.109
-0.106
-0.107
-0.104
-0.106
-0.109
-0.111
-0.103
-0.102
-0.098
-0.097
-0.094
-0.088
-0.089
-0.09
-0.09
-0.081
-0.081
-0.075
-0.076
-0.068
-0.067
-0.061
-0.062
-0.057
-0.059
-0.051
-0.044
-0.039
-0.021
0.006
0.022
0.032
0.038
0.044
0.061
0.075
0.085
0.075
0.077
0.044
0.027
0.027
0.006
-0.013
-0.029
-0.028
-0.036
-0.038
-0.044
-0.045
-0.05
-0.05
-0.055
-0.05
-0.05
-0.049
-0.048
-0.047
-0.045
-0.038
-0.032
-0.028
-0.026
-0.026
-0.027
-0.02
0.038
0.168
0.267
0.447
0.599
0.69
0.786
0.656
0.218
-0.287
-0.842
-1.164
-1.199
-1.079
-0.888
-0.695
-0.433
-0.182
0.002
0.105
0.154
0.182
0.193
0.215
0.223
0.235
0.238
0.243
0.245
0.245
0.252
0.253
0.257
0.256
0.255
0.259
0.273
0.274
0.274
0.273
0.28
0.281
0.283
0.287
0.293
0.299
0.301
0.31
0.319
0.325
0.323
0.327
0.328
0.333
0.333
0.332
0.333
0.327
0.316
0.304
0.294
0.275
0.258
0.234
0.217
0.197
0.181
0.15
0.119
0.086
0.053
0.02
-0.016
-0.052
-0.084
-0.112
-0.142
-0.167
-0.188
-0.204
-0.223
-0.234
-0.251
-0.256
-0.268
-0.265
-0.273
-0.269
-0.272
-0.279
-0.277
-0.273
-0.265
-0.263
-0.254
-0.253
-0.245
-0.233
-0.206
-0.148
-0.137
-0.168
-0.221
-0.248
-0.232
-0.208
-0.185
-0.17
-0.17
-0.161
-0.156
-0.141
-0.14
-0.136
-0.127
-0.122
-0.122
-0.116
-0.119
-0.112
-0.108
-0.096
-0.086
-0.088
-0.082
-0.093
-0.102
-0.09
-0.067
-0.074
-0.063
-0.071
-0.095
-0.111
-0.111
-0.105
-0.087
-0.077
-0.086
-0.086
-0.076
-0.068
-0.083
-0.076
-0.071
-0.053
-0.062
-0.054
-0.057
-0.05
-0.039
-0.037
-0.035
-0.031
-0.038
-0.04
-0.035
-0.033
-0.026
-0.017
0.013
0.057
0.05
0.016
-0.021
-0.013
0.008
0.029
0.036
0.04
0.054
0.063
0.082
0.11
0.097
0.095
0.072
0.058
0.049
0.037
0.025
0
-0.014
-0.012
-0.011
0.004
0.023
-0.005
-0.036
-0.054
-0.061
-0.057
-0.022
-0.013
0.016
0.077
0.132
0.072
-0.027
-0.096
-0.115
-0.092
-0.036
0.078
0.234
0.315
0.511
0.683
0.736
0.713
0.596
0.158
-0.331
-0.788
-1.105
-1.165
-1.075
-0.939
-0.634
-0.303
-0.068
0.059
0.178
0.229
0.231
0.251
0.362
0.455
0.429
0.301
0.166
0.149
0.214
0.353
0.439
0.416
0.316
0.267
0.243
0.235
0.239
0.258
0.282
0.312
0.344
0.375
0.334
0.301
0.324
0.356
0.385
0.416
0.466
0.475
0.402
0.308
0.313
0.367
0.428
0.388
0.292
0.236
0.246
0.284
0.299
0.293
0.25
0.244
0.288
0.272
0.254
0.231
0.142
0.061
-0.045
-0.079
-0.001
0.049
0.022
-0.083
-0.177
-0.26
-0.287
-0.296
-0.223
-0.122
-0.158
-0.22
-0.297
-0.37
-0.386
-0.361
-0.346
-0.329
-0.305
-0.309
-0.308
-0.28
-0.263
-0.253
-0.258
-0.233
-0.206
-0.201
-0.242
-0.244
-0.221
-0.196
-0.198
-0.194
-0.176
-0.165
-0.178
-0.191
-0.177
-0.165
-0.158
-0.158
-0.145
-0.138
-0.152
-0.172
-0.173
-0.16
-0.146
-0.136
-0.139
-0.13
-0.127
-0.134
-0.128
-0.115
-0.119
-0.12
-0.131
-0.128
-0.123
-0.113
-0.114
-0.115
-0.107
-0.109
-0.11
-0.122
-0.101
-0.097
-0.089
-0.095
-0.091
-0.087
-0.087
-0.097
-0.089
-0.081
-0.074
-0.073
-0.078
-0.065
-0.067
-0.054
-0.065
-0.046
-0.047
-0.047
-0.044
-0.041
-0.039
-0.037
-0.042
-0.039
-0.042
-0.039
-0.035
-0.024
-0.014
-0.004
0.023
0.044
0.053
0.056
0.06
0.065
0.09
0.094
0.096
0.087
0.073
0.039
0.031
0.021
0.008
-0.006
-0.021
-0.026
-0.039
-0.031
-0.019
-0.019
-0.029
-0.029
-0.052
-0.053
-0.061
-0.067
-0.071
-0.062
-0.044
-0.036
-0.023
-0.029
-0.021
-0.02
-0.019
-0.001
0.089
0.184
0.337
0.504
0.619
0.721
0.74
0.486
-0.061
-0.554
-1.001
-1.164
-1.115
-0.891
-0.665
-0.371
-0.133
0.046
0.143
0.189
0.205
0.206
0.222
0.249
0.258
0.263
0.265
0.283
0.28
0.266
0.265
0.275
0.271
0.272
0.308
0.306
0.297
0.293
0.275
0.272
0.269
0.28
0.294
0.319
0.342
0.359
0.328
0.311
0.32
0.423
0.497
0.459
0.371
0.315
0.309
0.351
0.332
0.264
0.21
0.213
0.25
0.256
0.23
0.197
0.194
0.196
0.174
0.132
0.118
0.108
0.075
0.027
-0.006
-0.028
-0.06
-0.095
-0.129
-0.141
-0.17
-0.208
-0.234
-0.221
-0.211
-0.206
-0.256
-0.292
-0.3
-0.292
-0.291
-0.285
-0.256
-0.246
-0.252
-0.253
-0.232
-0.212
-0.187
-0.198
-0.204
-0.211
-0.207
-0.197
-0.178
-0.16
-0.161
-0.141
-0.149
-0.141
-0.137
-0.133
-0.132
-0.119
-0.09
-0.073
-0.107
-0.127
-0.152
-0.161
-0.148
-0.134
-0.124
-0.113
-0.104
-0.106
-0.094
-0.094
-0.09
-0.089
-0.083
-0.078
-0.09
-0.085
-0.083
-0.086
-0.091
-0.079
-0.06
-0.06
-0.092
-0.083
-0.071
-0.043
-0.048
-0.068
-0.093
-0.083
-0.057
-0.055
-0.065
-0.071
-0.063
-0.058
-0.029
-0.016
-0.014
-0.012
-0.007
0.022
0.123
0.133
0.087
0.015
0.016
0.061
0.099
0.135
0.149
0.133
0.064
0.022
-0.006
-0.016
-0.024
-0.016
-0.02
-0.021
-0.022
-0.013
-0.007
-0.016
-0.025
-0.006
-0.006
0.002
-0.024
-0.037
-0.056
-0.047
0.009
0.042
0.044
0.007
-0.031
-0.053
0.008
0.127
0.22
0.394
0.57
0.686
0.808
0.719
0.32
-0.154
-0.696
-1.055
-1.103
-1.002
-0.827
-0.653
-0.402
-0.154
0.026
0.121
0.17
0.196
0.22
0.234
0.236
0.243
0.261
0.256
0.271
0.269
0.279
0.283
0.29
0.28
0.285
0.294
0.293
0.295
0.3
0.311
0.316
0.32
0.322
0.33
0.322
0.324
0.327
0.333
0.35
0.352
0.344
0.342
0.351
0.357
0.364
0.356
0.35
0.339
0.332
0.32
0.31
0.297
0.276
0.254
0.231
0.217
0.194
0.165
0.133
0.106
0.08
0.052
0.016
-0.011
-0.05
-0.077
-0.11
-0.14
-0.164
-0.181
-0.205
-0.228
-0.237
-0.243
-0.251
-0.265
-0.263
-0.266
-0.27
-0.27
-0.261
-0.261
-0.254
-0.256
-0.248
-0.236
-0.235
-0.23
-0.222
-0.21
-0.203
-0.189
-0.188
-0.183
-0.174
-0.173
-0.174
-0.159
-0.154
-0.153
-0.154
-0.152
-0.147
-0.144
-0.147
-0.148
-0.14
-0.136
-0.133
-0.136
-0.132
-0.128
-0.122
-0.123
-0.12
-0.115
-0.11
-0.109
-0.101
-0.095
-0.089
-0.096
-0.099
-0.093
-0.09
-0.079
-0.07
-0.069
-0.055
-0.024
-0.01
0.005
0.008
0.008
0.019
0.042
0.062
0.054
0.04
0.009
0
-0.012
-0.029
-0.055
-0.07
-0.076
-0.084
-0.087
-0.094
-0.099
-0.096
-0.098
-0.099
-0.093
-0.094
-0.092
-0.091
-0.083
-0.085
-0.074
-0.073
-0.061
-0.056
-0.058
-0.065
-0.065
-0.026
0.081
0.193
0.356
0.539
0.622
0.759
0.673
0.295
-0.2
-0.736
-1.107
-1.162
-1.081
-0.912
-0.744
-0.497
-0.23
-0.03
0.078
0.141
0.177
0.193
0.211
0.219
0.222
0.228
0.239
0.243
0.249
0.241
0.252
0.26
0.261
0.269
0.276
0.283
0.286
0.294
0.291
0.305
0.306
0.31
0.312
0.325
0.331
0.334
0.341
0.345
0.351
0.352
0.355
0.359
0.366
0.364
0.359
0.351
0.349
0.335
0.32
0.302
0.286
0.272
0.253
0.23
0.21
0.188
0.16
0.138
0.104
0.077
0.043
0.008
-0.029
-0.054
-0.082
-0.11
-0.14
-0.168
-0.186
-0.202
-0.217
-0.232
-0.243
-0.258
-0.26
-0.268
-0.269
-0.268
-0.266
-0.269
-0.261
-0.254
-0.247
-0.244
-0.239
-0.231
-0.223
-0.211
-0.206
-0.198
-0.185
-0.178
-0.172
-0.159
-0.152
-0.15
-0.149
-0.138
-0.131
-0.123
-0.121
-0.116
-0.112
-0.111
-0.108
-0.107
-0.102
-0.104
-0.103
-0.109
-0.105
-0.107
-0.105
-0.103
-0.102
-0.106
-0.101
-0.09
-0.083
-0.058
-0.036
-0.012
-0.005
0
0.007
0.015
0.032
0.048
0.045
0.031
0.008
-0.02
-0.02
-0.04
-0.065
-0.093
-0.096
-0.099
-0.099
-0.107
-0.117
-0.12
-0.116
-0.119
-0.114
-0.118
-0.113
-0.11
-0.104
-0.095
-0.092
-0.084
-0.079
-0.072
-0.07
-0.064
-0.071
-0.06
-0.008
0.116
0.202
0.395
0.531
0.633
0.735
0.605
0.133
-0.391
-0.94
-1.241
-1.275
-1.106
-0.878
-0.629
-0.32
-0.074
0.06
0.128
0.168
0.193
0.208
0.226
0.235
0.24
0.248
0.262
0.258
0.264
0.264
0.272
0.274
0.28
0.277
0.284
0.294
0.291
0.298
0.305
0.315
0.312
0.322
0.33
0.343
0.337
0.348
0.352
0.357
0.354
0.358
0.363
0.366
0.37
0.369
0.366
0.359
0.354
0.338
0.327
0.308
0.294
0.268
0.25
0.222
0.198
0.175
0.151
0.116
0.086
0.063
0.025
-0.012
-0.046
-0.069
-0.106
-0.134
-0.158
-0.176
-0.2
-0.214
-0.232
-0.239
-0.245
-0.254
-0.259
-0.26
-0.255
-0.254
-0.252
-0.245
-0.235
-0.233
-0.223
-0.219
-0.21
-0.206
-0.195
-0.194
-0.187
-0.17
-0.165
-0.162
-0.158
-0.148
-0.152
-0.148
-0.146
-0.134
-0.138
-0.131
-0.129
-0.128
-0.124
-0.119
-0.116
-0.116
-0.11
-0.113
-0.113
-0.107
-0.089
-0.082
-0.058
-0.035
-0.012
-0.006
-0.008
-0.002
-0.003
0.017
0.037
0.039
0.031
0.015
-0.016
-0.033
-0.04
-0.058
-0.088
-0.099
-0.102
-0.104
-0.114
-0.118
-0.121
-0.121
-0.111
-0.104
-0.097
-0.095
-0.091
-0.087
-0.078
-0.078
-0.073
-0.07
-0.066
-0.06
-0.054
-0.054
-0.059
-0.054
0.01
0.132
0.239
0.433
0.57
0.677
0.739
0.569
0.05
-0.467
-1.008
-1.27
-1.265
-1.035
-0.786
-0.465
-0.174
0.014
0.118
0.166
0.195
0.216
0.237
0.246
0.253
0.253
0.263
0.267
0.271
0.272
0.278
0.287
0.286
0.286
0.29
0.303
0.304
0.309
0.304
0.316
0.318
0.321
0.316
0.326
0.338
0.342
0.336
0.343
0.356
0.356
0.356
0.355
0.361
0.357
0.352
0.348
0.345
0.331
0.319
0.298
0.289
0.276
0.253
0.226
0.205
0.184
0.155
0.129
0.1
0.073
0.039
0.008
-0.037
-0.062
-0.098
-0.123
-0.153
-0.175
-0.197
-0.22
-0.244
-0.259
-0.266
-0.274
-0.275
-0.282
-0.277
-0.277
-0.276
-0.276
-0.264
-0.251
-0.247
-0.242
-0.23
-0.217
-0.212
-0.205
-0.199
-0.189
-0.187
-0.176
-0.172
-0.163
-0.156
-0.152
-0.154
-0.144
-0.142
-0.138
-0.137
-0.137
-0.125
-0.125
-0.127
-0.128
-0.121
-0.125
-0.121
-0.122
-0.114
-0.104
-0.087
-0.062
-0.035
-0.025
-0.018
-0.017
-0.016
0.002
0.014
0.027
0.019
0.003
-0.027
-0.035
-0.047
-0.065
-0.089
-0.1
-0.103
-0.11
-0.115
-0.124
-0.13
-0.131
-0.121
-0.114
-0.109
-0.114
-0.106
-0.104
-0.098
-0.097
-0.087
-0.081
-0.074
-0.073
-0.071
-0.06
-0.063
-0.055
-0.001
0.115
0.205
0.391
0.524
0.638
0.722
0.572
0.063
-0.447
-0.983
-1.237
-1.235
-1.018
-0.783
-0.471
-0.178
0.004
0.106
0.153
0.188
0.205
0.222
0.233
0.24
0.24
0.253
0.261
0.263
0.266
0.269
0.274
0.273
0.275
0.28
0.289
0.285
0.288
0.29
0.3
0.305
0.309
0.314
0.326
0.334
0.334
0.343
0.346
0.356
0.351
0.356
0.351
0.359
0.347
0.34
0.337
0.335
0.326
0.31
0.293
0.287
0.273
0.253
0.234
0.211
0.197
0.174
0.149
0.119
0.096
0.063
0.031
-0.006
-0.038
-0.065
-0.097
-0.122
-0.144
-0.165
-0.19
-0.206
-0.219
-0.227
-0.244
-0.244
-0.253
-0.247
-0.248
-0.242
-0.234
-0.228
-0.22
-0.214
-0.206
-0.201
-0.189
-0.183
-0.175
-0.168
-0.163
-0.16
-0.147
-0.143
-0.136
-0.133
-0.134
-0.128
-0.133
-0.126
-0.127
-0.12
-0.116
-0.109
-0.114
-0.112
-0.108
-0.104
-0.107
-0.107
-0.107
-0.108
-0.111
-0.103
-0.095
-0.084
-0.06
-0.035
-0.013
-0.003
0.006
-0.002
0.008
0.028
0.045
0.055
0.051
0.023
-0.002
-0.003
-0.025
-0.049
-0.076
-0.083
-0.083
-0.088
-0.101
-0.105
-0.112
-0.106
-0.109
-0.103
-0.105
-0.1
-0.096
-0.099
-0.093
-0.088
-0.082
-0.076
-0.071
-0.074
-0.063
-0.067
-0.071
-0.048
0.051
0.161
0.316
0.489
0.585
0.739
0.698
0.322
-0.185
-0.71
-1.113
-1.183
-1.078
-0.889
-0.701
-0.425
-0.17
0.007
0.093
0.135
0.161
0.179
0.2
0.205
0.211
0.216
0.235
0.245
0.247
0.244
0.259
0.261
0.268
0.269
0.277
0.283
0.281
0.284
0.291
0.302
0.301
0.307
0.306
0.316
0.326
0.329
0.324
0.339
0.34
0.344
0.342
0.338
0.345
0.337
0.339
0.322
0.317
0.301
0.29
0.273
0.266
0.243
0.225
0.202
0.182
0.162
0.136
0.11
0.083
0.062
0.033
0.001
-0.03
-0.05
-0.074
-0.105
-0.132
-0.149
-0.17
-0.193
-0.205
-0.21
-0.217
-0.229
-0.233
-0.239
-0.233
-0.234
-0.227
-0.223
-0.212
-0.205
-0.203
-0.2
-0.196
-0.193
-0.187
-0.18
-0.177
-0.17
-0.17
-0.16
-0.154
-0.145
-0.144
-0.14
-0.145
-0.137
-0.132
-0.13
-0.128
-0.122
-0.12
-0.124
-0.126
-0.129
-0.131
-0.128
-0.119
-0.12
-0.111
-0.097
-0.072
-0.057
-0.036
-0.034
-0.033
-0.036
-0.017
0.007
0.02
0.024
0.013
-0.01
-0.026
-0.031
-0.048
-0.073
-0.1
-0.097
-0.103
-0.102
-0.109
-0.113
-0.116
-0.112
-0.108
-0.104
-0.091
-0.085
-0.081
-0.075
-0.076
-0.074
-0.064
-0.061
-0.051
-0.054
-0.055
-0.061
-0.053
0.009
0.14
0.243
0.428
0.558
0.673
0.796
0.571
0.083
-0.401
-0.929
-1.134
-1.114
-0.998
-0.821
-0.621
-0.348
-0.105
0.045
0.126
0.171
0.197
0.213
0.232
0.235
0.23
0.241
0.256
0.257
0.258
0.259
0.262
0.268
0.266
0.269
0.271
0.278
0.28
0.29
0.293
0.304
0.303
0.31
0.314
0.318
0.322
0.322
0.33
0.334
0.335
0.344
0.349
0.345
0.347
0.338
0.334
0.322
0.312
0.297
0.284
0.274
0.262
0.247
0.222
0.209
0.19
0.169
0.14
0.12
0.095
0.073
0.04
0.013
-0.021
-0.044
-0.073
-0.098
-0.119
-0.139
-0.162
-0.182
-0.186
-0.198
-0.194
-0.201
-0.203
-0.207
-0.203
-0.201
-0.199
-0.199
-0.194
-0.193
-0.188
-0.177
-0.178
-0.166
-0.16
-0.149
-0.147
-0.139
-0.137
-0.132
-0.131
-0.122
-0.118
-0.115
-0.119
-0.117
-0.126
-0.121
-0.117
-0.121
-0.122
-0.119
-0.113
-0.116
-0.11
-0.111
-0.114
-0.117
-0.112
-0.117
-0.109
-0.103
-0.105
-0.104
-0.101
-0.09
-0.083
-0.072
-0.047
-0.017
-0.001
0.017
0.019
0.027
0.021
0.046
0.054
0.059
0.052
0.023
0
-0.008
-0.023
-0.047
-0.068
-0.078
-0.08
-0.087
-0.091
-0.101
-0.11
-0.11
-0.103
-0.107
-0.107
-0.105
-0.103
-0.096
-0.098
-0.091
-0.085
-0.077
-0.077
-0.068
-0.071
-0.072
-0.06
0.003
0.122
0.22
0.401
0.522
0.636
0.725
0.521
-0.002
-0.513
-1.057
-1.248
-1.23
-1.028
-0.825
-0.552
-0.264
-0.044
0.069
0.128
0.162
0.18
0.205
0.214
0.221
0.225
0.241
0.247
0.243
0.242
0.249
0.252
0.258
0.257
0.262
0.269
0.272
0.269
0.271
0.284
0.286
0.295
0.298
0.308
0.315
0.326
0.32
0.328
0.335
0.334
0.335
0.336
0.339
0.339
0.33
0.324
0.323
0.311
0.3
0.28
0.265
0.245
0.227
0.205
0.187
0.169
0.146
0.121
0.093
0.072
0.042
0.006
-0.021
-0.042
-0.08
-0.105
-0.134
-0.155
-0.177
-0.195
-0.209
-0.222
-0.233
-0.244
-0.247
-0.247
-0.24
-0.246
-0.244
-0.244
-0.231
-0.226
-0.22
-0.212
-0.204
-0.198
-0.192
-0.191
-0.181
-0.174
-0.173
-0.162
-0.162
-0.153
-0.156
-0.15
-0.149
-0.145
-0.147
-0.145
-0.146
-0.144
-0.146
-0.148
-0.147
-0.144
-0.146
-0.146
-0.142
-0.145
-0.138
-0.135
-0.134
-0.14
-0.132
-0.136
-0.127
-0.13
-0.129
-0.122
-0.118
-0.116
-0.112
-0.105
-0.099
-0.092
-0.084
-0.059
-0.033
-0.002
0.004
0.011
0.016
0.013
0.031
0.039
0.048
0.043
0.023
-0.005
-0.009
-0.03
-0.045
-0.064
-0.069
-0.076
-0.073
-0.085
-0.086
-0.092
-0.094
-0.089
-0.09
-0.089
-0.091
-0.088
-0.081
-0.075
-0.071
-0.065
-0.061
-0.051
-0.053
-0.046
-0.055
-0.031
0.045
0.153
0.29
0.472
0.576
0.698
0.725
0.45
-0.095
-0.635
-1.105
-1.261
-1.175
-0.945
-0.706
-0.388
-0.12
0.046
0.135
0.18
0.204
0.226
0.243
0.248
0.247
0.257
0.266
0.272
0.271
0.274
0.286
0.3
0.294
0.295
0.309
0.318
0.321
0.318
0.329
0.333
0.34
0.337
0.345
0.353
0.359
0.348
0.357
0.371
0.376
0.374
0.371
0.381
0.384
0.381
0.367
0.362
0.349
0.338
0.315
0.304
0.291
0.272
0.253
0.229
0.216
0.198
0.173
0.146
0.122
0.092
0.068
0.038
0.004
-0.025
-0.053
-0.088
-0.114
-0.135
-0.157
-0.182
-0.198
-0.209
-0.212
-0.221
-0.232
-0.231
-0.233
-0.228
-0.231
-0.224
-0.222
-0.209
-0.206
-0.2
-0.192
-0.186
-0.178
-0.176
-0.17
-0.161
-0.154
-0.151
-0.144
-0.145
-0.13
-0.14
-0.131
-0.13
-0.128
-0.133
-0.132
-0.13
-0.127
-0.128
-0.134
-0.129
-0.124
-0.126
-0.127
-0.122
-0.125
-0.124
-0.13
-0.122
-0.122
-0.123
-0.124
-0.121
-0.119
-0.116
-0.111
-0.112
-0.106
-0.102
-0.087
-0.064
-0.032
-0.016
0.004
0.009
0.009
0.009
0.031
0.04
0.043
0.041
0.014
-0.003
-0.01
-0.023
-0.051
-0.068
-0.083
-0.091
-0.094
-0.101
-0.109
-0.115
-0.114
-0.108
-0.104
-0.101
-0.097
-0.089
-0.086
-0.084
-0.077
-0.073
-0.065
-0.062
-0.059
-0.064
-0.071
-0.031
0.08
0.16
0.345
0.498
0.599
0.719
0.609
0.18
-0.338
-0.895
-1.19
-1.234
-1.048
-0.829
-0.56
-0.257
-0.031
0.083
0.145
0.171
0.204
0.221
0.236
0.235
0.243
0.254
0.264
0.255
0.252
0.255
0.261
0.265
0.265
0.271
0.283
0.294
0.291
0.302
0.307
0.321
0.314
0.318
0.323
0.338
0.338
0.336
0.343
0.351
0.358
0.35
0.355
0.357
0.359
0.35
0.346
0.335
0.335
0.314
0.296
0.282
0.267
0.248
0.228
0.206
0.189
0.169
0.141
0.114
0.09
0.07
0.035
0.005
-0.024
-0.054
-0.087
-0.117
-0.139
-0.156
-0.176
-0.199
-0.216
-0.226
-0.231
-0.236
-0.237
-0.232
-0.226
-0.228
-0.218
-0.217
-0.203
-0.198
-0.194
-0.184
-0.175
-0.167
-0.164
-0.161
-0.153
-0.14
-0.145
-0.137
-0.134
-0.13
-0.137
-0.136
-0.134
-0.132
-0.133
-0.134
-0.131
-0.131
-0.127
-0.128
-0.13
-0.128
-0.125
-0.13
-0.123
-0.122
-0.118
-0.117
-0.116
-0.12
-0.118
-0.113
-0.113
-0.109
-0.107
-0.104
-0.101
-0.091
-0.083
-0.073
-0.062
-0.031
-0.01
0.004
0.007
0.007
0.013
0.034
0.043
0.048
0.049
0.029
0.009
-0.002
-0.007
-0.031
-0.059
-0.075
-0.074
-0.076
-0.088
-0.092
-0.094
-0.097
-0.091
-0.088
-0.09
-0.08
-0.077
-0.071
-0.074
-0.063
-0.064
-0.056
-0.054
-0.048
-0.054
-0.057
-0.028
0.065
0.173
0.324
0.5
0.596
0.758
0.707
0.33
-0.173
-0.715
-1.105
-1.152
-1.04
-0.849
-0.662
-0.389
-0.125
0.039
0.121
0.161
0.188
0.199
0.214
0.223
0.231
0.237
0.255
0.257
0.251
0.257
0.271
0.279
0.277
0.282
0.286
0.295
0.295
0.303
0.306
0.321
0.319
0.323
0.327
0.339
0.339
0.337
0.335
0.347
0.357
0.356
0.355
0.354
0.36
0.355
0.349
0.334
0.333
0.317
0.3
0.284
0.271
0.261
0.242
0.228
0.212
0.192
0.168
0.147
0.125
0.101
0.073
0.039
0.009
-0.02
-0.052
-0.076
-0.104
-0.124
-0.149
-0.166
-0.178
-0.192
-0.199
-0.209
-0.212
-0.211
-0.202
-0.202
-0.199
-0.198
-0.191
-0.187
-0.18
-0.174
-0.172
-0.17
-0.174
-0.166
-0.161
-0.152
-0.153
-0.143
-0.144
-0.139
-0.14
-0.141
-0.138
-0.133
-0.133
-0.133
-0.128
-0.133
-0.132
-0.135
-0.137
-0.141
-0.137
-0.142
-0.135
-0.134
-0.124
-0.123
-0.104
-0.083
-0.067
-0.042
-0.039
-0.044
-0.043
-0.017
0.005
0.029
0.013
0
-0.029
-0.036
-0.046
-0.06
-0.092
-0.114
-0.111
-0.117
-0.131
-0.133
-0.133
-0.14
-0.132
-0.13
-0.126
-0.129
-0.123
-0.12
-0.117
-0.113
-0.101
-0.091
-0.089
-0.09
-0.087
-0.089
-0.074
0
0.135
0.252
0.446
0.565
0.691
0.749
0.455
-0.011
-0.516
-0.995
-1.141
-1.089
-0.963
-0.8
-0.59
-0.323
-0.108
0.027
0.1
0.14
0.164
0.178
0.2
0.208
0.206
0.214
0.223
0.23
0.236
0.244
0.241
0.246
0.246
0.246
0.248
0.26
0.259
0.265
0.271
0.278
0.28
0.287
0.293
0.305
0.306
0.306
0.314
0.32
0.326
0.323
0.324
0.321
0.325
0.315
0.305
0.296
0.289
0.271
0.25
0.239
0.221
0.203
0.183
0.169
0.142
0.13
0.102
0.074
0.048
0.021
-0.01
-0.037
-0.062
-0.086
-0.113
-0.136
-0.15
-0.17
-0.184
-0.199
-0.202
-0.212
-0.215
-0.217
-0.215
-0.214
-0.211
-0.215
-0.211
-0.203
-0.198
-0.194
-0.19
-0.179
-0.175
-0.167
-0.167
-0.163
-0.161
-0.152
-0.149
-0.143
-0.14
-0.132
-0.129
-0.128
-0.123
-0.117
-0.116
-0.118
-0.114
-0.118
-0.11
-0.115
-0.108
-0.107
-0.087
-0.07
-0.05
-0.028
-0.019
-0.022
-0.018
-0.008
0.015
0.037
0.031
0.025
-0.003
-0.031
-0.04
-0.048
-0.08
-0.108
-0.125
-0.128
-0.135
-0.146
-0.154
-0.156
-0.152
-0.15
-0.144
-0.144
-0.14
-0.143
-0.136
-0.135
-0.129
-0.127
-0.114
-0.112
-0.107
-0.105
-0.113
-0.084
-0.005
0.126
0.243
0.429
0.533
0.656
0.692
0.4
-0.118
-0.649
-1.142
-1.265
-1.203
-1.018
-0.816
-0.541
-0.248
-0.036
0.075
0.127
0.164
0.179
0.2
0.203
0.217
0.217
0.237
0.247
0.247
0.253
0.256
0.266
0.267
0.272
0.276
0.286
0.285
0.292
0.299
0.315
0.321
0.322
0.323
0.332
0.338
0.34
0.348
0.35
0.366
0.355
0.363
0.357
0.361
0.356
0.344
0.334
0.331
0.323
0.303
0.287
0.268
0.255
0.227
0.209
0.192
0.176
0.147
0.123
0.089
0.068
0.041
0.01
-0.018
-0.045
-0.072
-0.099
-0.124
-0.145
-0.158
-0.179
-0.19
-0.2
-0.206
-0.215
-0.219
-0.221
-0.216
-0.208
-0.205
-0.201
-0.199
-0.192
-0.194
-0.187
-0.183
-0.17
-0.168
-0.159
-0.155
-0.146
-0.143
-0.139
-0.142
-0.134
-0.125
-0.131
-0.129
-0.134
-0.125
-0.127
-0.121
-0.126
-0.121
-0.119
-0.112
-0.113
-0.097
-0.083
-0.058
-0.038
-0.021
-0.007
-0.003
0.003
0.002
0.019
0.031
0.036
0.026
0.002
-0.028
-0.031
-0.045
-0.067
-0.091
-0.103
-0.106
-0.113
-0.115
-0.128
-0.133
-0.13
-0.124
-0.128
-0.125
-0.121
-0.116
-0.116
-0.107
-0.107
-0.1
-0.089
-0.082
-0.079
-0.079
-0.077
-0.054
0.025
0.145
0.264
0.444
0.558
0.68
0.71
0.433
-0.116
-0.65
-1.147
-1.292
-1.209
-0.977
-0.745
-0.43
-0.146
0.029
0.119
0.164
0.186
0.203
0.227
0.238
0.242
0.254
0.261
0.269
0.267
0.267
0.277
0.28
0.286
0.282
0.295
0.297
0.303
0.302
0.313
0.317
0.323
0.328
0.332
0.332
0.334
0.34
0.342
0.356
0.36
0.36
0.355
0.364
0.358
0.353
0.34
0.329
0.32
0.308
0.289
0.267
0.259
0.236
0.216
0.193
0.183
0.16
0.142
0.109
0.088
0.061
0.027
-0.005
-0.039
-0.061
-0.087
-0.117
-0.14
-0.154
-0.175
-0.191
-0.21
-0.214
-0.214
-0.215
-0.225
-0.217
-0.217
-0.211
-0.209
-0.203
-0.193
-0.187
-0.179
-0.182
-0.168
-0.166
-0.155
-0.16
-0.151
-0.149
-0.141
-0.14
-0.136
-0.13
-0.133
-0.132
-0.132
-0.13
-0.127
-0.124
-0.127
-0.121
-0.126
-0.12
-0.125
-0.121
-0.125
-0.12
-0.118
-0.117
-0.111
-0.107
-0.09
-0.069
-0.048
-0.027
-0.006
-0.007
0.001
-0.005
0.004
0.018
0.033
0.036
0.019
-0.002
-0.022
-0.027
-0.054
-0.072
-0.09
-0.092
-0.099
-0.105
-0.119
-0.115
-0.123
-0.116
-0.111
-0.111
-0.113
-0.11
-0.102
-0.102
-0.099
-0.093
-0.083
-0.081
-0.081
-0.082
-0.08
-0.08
-0.032
0.085
0.168
0.359
0.503
0.613
0.726
0.583
0.11
-0.408
-0.976
-1.224
-1.245
-1.043
-0.828
-0.537
-0.241
-0.025
0.079
0.14
0.17
0.192
0.214
0.227
0.233
0.235
0.242
0.25
0.252
0.247
0.258
0.263
0.264
0.261
0.265
0.271
0.276
0.279
0.288
0.294
0.299
0.307
0.309
0.315
0.324
0.331
0.326
0.335
0.333
0.339
0.338
0.336
0.338
0.332
0.319
0.313
0.309
0.297
0.283
0.257
0.254
0.234
0.216
0.188
0.174
0.16
0.143
0.116
0.091
0.067
0.045
0.014
-0.013
-0.034
-0.059
-0.093
-0.124
-0.139
-0.159
-0.181
-0.202
-0.21
-0.215
-0.222
-0.22
-0.227
-0.218
-0.212
-0.209
-0.208
-0.194
-0.191
-0.184
-0.185
-0.178
-0.177
-0.171
-0.173
-0.17
-0.162
-0.158
-0.155
-0.151
-0.14
-0.139
-0.134
-0.14
-0.134
-0.132
-0.133
-0.133
-0.133
-0.13
-0.132
-0.129
-0.124
-0.127
-0.129
-0.114
-0.116
-0.114
-0.116
-0.11
-0.114
-0.11
-0.104
-0.094
-0.083
-0.056
-0.033
-0.013
-0.001
0.01
0.015
0.012
0.029
0.041
0.054
0.047
0.032
0.008
0.006
-0.005
-0.029
-0.058
-0.069
-0.073
-0.078
-0.087
-0.094
-0.096
-0.094
-0.081
-0.084
-0.081
-0.083
-0.077
-0.077
-0.067
-0.066
-0.06
-0.055
-0.052
-0.051
-0.052
-0.056
-0.032
0.053
0.152
0.31
0.485
0.589
0.737
0.708
0.357
-0.159
-0.717
-1.123
-1.206
-1.082
-0.867
-0.644
-0.341
-0.08
0.059
0.136
0.176
0.198
0.22
0.228
0.238
0.243
0.247
0.253
0.257
0.26
0.262
0.275
0.283
0.285
0.279
0.293
0.3
0.305
0.302
0.315
0.323
0.322
0.325
0.329
0.337
0.339
0.341
0.34
0.353
0.351
0.352
0.345
0.352
0.344
0.337
0.326
0.315
0.304
0.289
0.274
0.257
0.243
0.224
0.203
0.176
0.165
0.146
0.125
0.096
0.074
0.051
0.023
-0.005
-0.034
-0.058
-0.084
-0.111
-0.137
-0.153
-0.17
-0.188
-0.209
-0.215
-0.221
-0.222
-0.227
-0.229
-0.223
-0.217
-0.216
-0.211
-0.201
-0.199
-0.195
-0.191
-0.186
-0.186
-0.177
-0.178
-0.168
-0.169
-0.165
-0.159
-0.158
-0.156
-0.158
-0.155
-0.154
-0.151
-0.156
-0.156
-0.16
-0.153
-0.158
-0.156
-0.157
-0.155
-0.157
-0.151
-0.152
-0.151
-0.148
-0.141
-0.131
-0.122
-0.104
-0.09
-0.068
-0.053
-0.041
-0.042
-0.033
-0.034
-0.018
0.001
0.01
0.009
-0.017
-0.042
-0.05
-0.054
-0.074
-0.103
-0.122
-0.115
-0.127
-0.126
-0.137
-0.14
-0.141
-0.133
-0.133
-0.134
-0.127
-0.119
-0.112
-0.111
-0.105
-0.102
-0.088
-0.084
-0.08
-0.085
-0.089
-0.057
0.038
0.142
0.297
0.467
0.571
0.742
0.67
0.269
-0.221
-0.768
-1.142
-1.184
-1.058
-0.863
-0.669
-0.398
-0.141
0.011
0.089
0.13
0.157
0.179
0.199
0.204
0.213
0.222
0.231
0.233
0.235
0.237
0.246
0.255
0.258
0.255
0.265
0.271
0.273
0.273
0.284
0.296
0.299
0.302
0.303
0.312
0.315
0.319
0.318
0.325
0.325
0.331
0.327
0.323
0.322
0.315
0.311
0.3
0.292
0.276
0.26
0.243
0.229
0.213
0.196
0.177
0.165
0.154
0.13
0.105
0.084
0.063
0.036
0.008
-0.022
-0.046
-0.077
-0.104
-0.126
-0.151
-0.171
-0.186
-0.196
-0.207
-0.204
-0.208
-0.204
-0.21
-0.204
-0.203
-0.197
-0.195
-0.191
-0.185
-0.18
-0.175
-0.168
-0.158
-0.156
-0.15
-0.147
-0.136
-0.137
-0.136
-0.134
-0.124
-0.125
-0.121
-0.127
-0.119
-0.123
-0.121
-0.123
-0.124
-0.117
-0.115
-0.108
-0.092
-0.067
-0.049
-0.027
-0.024
-0.026
-0.022
-0.01
0.019
0.036
0.04
0.039
0.011
-0.008
-0.011
-0.024
-0.049
-0.088
-0.098
-0.101
-0.107
-0.117
-0.114
-0.121
-0.127
-0.127
-0.121
-0.118
-0.118
-0.116
-0.111
-0.103
-0.101
-0.088
-0.086
-0.075
-0.081
-0.072
-0.084
-0.062
0.011
0.143
0.264
0.458
0.572
0.717
0.773
0.455
-0.005
-0.522
-0.987
-1.111
-1.052
-0.921
-0.759
-0.552
-0.279
-0.066
0.056
0.118
0.16
0.183
0.199
0.213
0.221
0.232
0.232
0.244
0.243
0.25
0.25
0.256
0.257
0.263
0.271
0.28
0.287
0.288
0.298
0.304
0.312
0.316
0.321
0.318
0.334
0.335
0.337
0.331
0.342
0.338
0.344
0.343
0.339
0.337
0.328
0.32
0.299
0.293
0.27
0.253
0.237
0.232
0.205
0.182
0.162
0.145
0.124
0.099
0.072
0.047
0.019
-0.008
-0.031
-0.059
-0.078
-0.11
-0.135
-0.157
-0.169
-0.185
-0.201
-0.205
-0.209
-0.211
-0.217
-0.216
-0.211
-0.204
-0.199
-0.192
-0.186
-0.177
-0.171
-0.17
-0.167
-0.156
-0.149
-0.149
-0.144
-0.14
-0.136
-0.136
-0.123
-0.117
-0.113
-0.116
-0.116
-0.116
-0.11
-0.106
-0.099
-0.089
-0.072
-0.057
-0.038
-0.027
-0.035
-0.032
-0.019
0.012
0.026
0.032
0.026
0.006
-0.019
-0.028
-0.043
-0.066
-0.104
-0.12
-0.128
-0.14
-0.145
-0.154
-0.152
-0.151
-0.147
-0.151
-0.144
-0.146
-0.146
-0.136
-0.126
-0.119
-0.118
-0.107
-0.102
-0.096
-0.093
-0.099
-0.085
-0.022
0.11
0.211
0.396
0.536
0.649
0.776
0.565
0.083
-0.405
-0.958
-1.17
-1.153
-1.017
-0.837
-0.63
-0.362
-0.114
0.033
0.114
0.148
0.176
0.193
0.203
0.208
0.221
0.226
0.235
0.236
0.237
0.245
0.252
0.259
0.256
0.265
0.267
0.277
0.28
0.285
0.283
0.29
0.295
0.295
0.305
0.313
0.323
0.325
0.336
0.34
0.344
0.34
0.346
0.342
0.339
0.333
0.319
0.307
0.293
0.287
0.27
0.26
0.241
0.222
0.2
0.182
0.161
0.14
0.115
0.092
0.059
0.036
0.007
-0.029
-0.051
-0.077
-0.101
-0.126
-0.14
-0.158
-0.172
-0.189
-0.2
-0.206
-0.203
-0.211
-0.209
-0.21
-0.204
-0.201
-0.196
-0.194
-0.187
-0.179
-0.175
-0.167
-0.163
-0.161
-0.158
-0.15
-0.147
-0.141
-0.146
-0.141
-0.14
-0.141
-0.138
-0.136
-0.132
-0.134
-0.128
-0.127
-0.115
-0.093
-0.07
-0.058
-0.042
-0.043
-0.045
-0.037
-0.01
0.013
0.016
0.01
-0.01
-0.029
-0.049
-0.063
-0.082
-0.109
-0.138
-0.138
-0.15
-0.158
-0.165
-0.169
-0.168
-0.17
-0.163
-0.159
-0.157
-0.157
-0.152
-0.148
-0.141
-0.139
-0.131
-0.129
-0.12
-0.113
-0.112
-0.107
-0.068
0.055
0.148
0.327
0.481
0.578
0.708
0.604
0.167
-0.339
-0.91
-1.247
-1.285
-1.117
-0.898
-0.665
-0.362
-0.112
0.028
0.1
0.141
0.164
0.183
0.193
0.211
0.218
0.216
0.222
0.234
0.231
0.241
0.259
0.265
0.255
0.261
0.271
0.279
0.283
0.281
0.297
0.301
0.302
0.3
0.312
0.318
0.32
0.32
0.328
0.339
0.34
0.341
0.343
0.347
0.343
0.336
0.317
0.308
0.293
0.28
0.262
0.246
0.232
0.218
0.195
0.178
0.158
0.128
0.11
0.086
0.061
0.025
-0.006
-0.043
-0.07
-0.091
-0.125
-0.151
-0.168
-0.19
-0.208
-0.221
-0.234
-0.24
-0.249
-0.245
-0.241
-0.239
-0.238
-0.23
-0.224
-0.209
-0.202
-0.193
-0.19
-0.178
-0.169
-0.167
-0.157
-0.157
-0.148
-0.144
-0.134
-0.135
-0.134
-0.128
-0.128
-0.13
-0.124
-0.127
-0.125
-0.123
-0.125
-0.119
-0.121
-0.119
-0.12
-0.114
-0.114
-0.094
-0.08
-0.058
-0.041
-0.03
-0.027
-0.025
-0.019
-0.006
0.014
0.015
0.015
-0.011
-0.029
-0.047
-0.049
-0.075
-0.096
-0.112
-0.109
-0.117
-0.115
-0.129
-0.133
-0.136
-0.126
-0.119
-0.12
-0.115
-0.111
-0.104
-0.105
-0.095
-0.092
-0.082
-0.081
-0.078
-0.074
-0.074
-0.043
0.056
0.151
0.313
0.481
0.57
0.71
0.674
0.297
-0.22
-0.767
-1.159
-1.236
-1.093
-0.869
-0.633
-0.337
-0.073
0.069
0.149
0.187
0.216
0.228
0.244
0.25
0.263
0.272
0.278
0.281
0.282
0.287
0.289
0.299
0.296
0.299
0.311
0.321
0.315
0.321
0.327
0.34
0.341
0.344
0.346
0.357
0.362
0.363
0.363
0.37
0.378
0.375
0.38
0.38
0.374
0.366
0.358
0.342
0.339
0.323
0.307
0.291
0.274
0.264
0.237
0.218
0.199
0.174
0.148
0.122
0.093
0.069
0.032
-0.007
-0.034
-0.055
-0.088
-0.119
-0.137
-0.162
-0.175
-0.196
-0.206
-0.215
-0.219
-0.228
-0.227
-0.229
-0.221
-0.219
-0.214
-0.208
-0.199
-0.19
-0.187
-0.181
-0.174
-0.167
-0.158
-0.151
-0.147
-0.137
-0.147
-0.138
-0.135
-0.132
-0.13
-0.131
-0.132
-0.13
-0.126
-0.131
-0.127
-0.127
-0.129
-0.134
-0.135
-0.131
-0.132
-0.135
-0.131
-0.129
-0.116
-0.098
-0.077
-0.056
-0.044
-0.031
-0.032
-0.032
-0.026
-0.002
0.007
0.014
0
-0.027
-0.052
-0.049
-0.068
-0.093
-0.107
-0.111
-0.113
-0.119
-0.124
-0.129
-0.131
-0.124
-0.123
-0.125
-0.12
-0.126
-0.119
-0.117
-0.109
-0.108
-0.102
-0.092
-0.087
-0.081
-0.097
-0.067
0.004
0.105
0.229
0.412
0.517
0.655
0.702
0.43
-0.074
-0.596
-1.085
-1.225
-1.147
-0.937
-0.729
-0.436
-0.16
0.014
0.109
0.15
0.181
0.198
0.218
0.222
0.227
0.24
0.25
0.256
0.257
0.26
0.258
0.277
0.273
0.275
0.274
0.291
0.291
0.292
0.301
0.313
0.317
0.318
0.325
0.337
0.338
0.338
0.343
0.345
0.36
0.353
0.35
0.35
0.357
0.348
0.342
0.333
0.33
0.316
0.301
0.281
0.266
0.253
0.23
0.214
0.194
0.176
0.154
0.129
0.098
0.073
0.042
0.016
-0.017
-0.046
-0.069
-0.102
-0.121
-0.142
-0.154
-0.181
-0.199
-0.204
-0.207
-0.217
-0.216
-0.217
-0.21
-0.205
-0.206
-0.197
-0.194
-0.185
-0.187
-0.175
-0.174
-0.161
-0.161
-0.157
-0.153
-0.147
-0.148
-0.145
-0.144
-0.142
-0.145
-0.146
-0.147
-0.138
-0.136
-0.142
-0.138
-0.148
-0.136
-0.137
-0.139
-0.138
-0.139
-0.133
-0.128
-0.125
-0.125
-0.125
-0.127
-0.124
-0.116
-0.111
-0.098
-0.079
-0.053
-0.032
-0.021
-0.021
-0.019
-0.018
-0.008
0.015
0.026
0.032
0.01
-0.019
-0.029
-0.034
-0.048
-0.072
-0.087
-0.098
-0.098
-0.105
-0.113
-0.124
-0.117
-0.122
-0.113
-0.108
-0.108
-0.103
-0.097
-0.091
-0.09
-0.077
-0.067
-0.068
-0.063
-0.063
-0.066
-0.029
0.075
0.155
0.33
0.482
0.591
0.732
0.672
0.264
-0.227
-0.793
-1.13
-1.183
-1.029
-0.834
-0.611
-0.326
-0.078
0.051
0.125
0.163
0.18
0.201
0.214
0.229
0.231
0.241
0.248
0.253
0.25
0.252
0.266
0.266
0.269
0.273
0.283
0.29
0.294
0.295
0.303
0.308
0.315
0.308
0.318
0.324
0.334
0.326
0.33
0.335
0.338
0.341
0.34
0.338
0.335
0.333
0.32
0.315
0.306
0.291
0.276
0.266
0.247
0.231
0.208
0.19
0.178
0.157
0.135
0.108
0.088
0.057
0.033
0
-0.023
-0.056
-0.08
-0.112
-0.129
-0.161
-0.185
-0.2
-0.215
-0.219
-0.225
-0.23
-0.237
-0.233
-0.232
-0.227
-0.227
-0.215
-0.21
-0.202
-0.193
-0.186
-0.181
-0.176
-0.165
-0.166
-0.158
-0.153
-0.149
-0.153
-0.15
-0.156
-0.15
-0.147
-0.138
-0.138
-0.145
-0.143
-0.143
-0.139
-0.138
-0.138
-0.137
-0.131
-0.132
-0.133
-0.134
-0.126
-0.124
-0.118
-0.122
-0.108
-0.094
-0.074
-0.05
-0.035
-0.021
-0.017
-0.013
-0.012
0.011
0.029
0.039
0.035
0.015
-0.014
-0.021
-0.032
-0.05
-0.075
-0.098
-0.098
-0.106
-0.108
-0.116
-0.119
-0.117
-0.11
-0.116
-0.107
-0.108
-0.102
-0.096
-0.094
-0.094
-0.088
-0.08
-0.076
-0.073
-0.078
-0.074
-0.026
0.094
0.19
0.373
0.514
0.633
0.785
0.622
0.15
-0.313
-0.871
-1.122
-1.102
-0.969
-0.799
-0.618
-0.358
-0.121
0.036
0.113
0.153
0.178
0.192
0.205
0.215
0.225
0.23
0.24
0.235
0.239
0.241
0.254
0.257
0.258
0.255
0.265
0.266
0.275
0.274
0.283
0.288
0.293
0.297
0.297
0.306
0.312
0.315
0.318
0.319
0.321
0.327
0.324
0.331
0.324
0.321
0.316
0.305
0.29
0.276
0.262
0.252
0.24
0.23
0.207
0.181
0.169
0.15
0.13
0.102
0.079
0.046
0.019
-0.007
-0.031
-0.056
-0.081
-0.108
-0.129
-0.143
-0.162
-0.179
-0.192
-0.201
-0.209
-0.212
-0.212
-0.213
-0.21
-0.208
-0.201
-0.199
-0.189
-0.187
-0.181
-0.181
-0.167
-0.165
-0.152
-0.151
-0.144
-0.138
-0.128
-0.123
-0.124
-0.122
-0.119
-0.118
-0.121
-0.115
-0.113
-0.113
-0.118
-0.112
-0.123
-0.12
-0.12
-0.119
-0.108
-0.102
-0.089
-0.074
-0.055
-0.04
-0.037
-0.04
-0.023
-0.011
0.019
0.032
0.032
0.031
0.008
-0.015
-0.024
-0.04
-0.066
-0.09
-0.101
-0.102
-0.112
-0.115
-0.128
-0.131
-0.129
-0.131
-0.122
-0.12
-0.121
-0.117
-0.109
-0.106
-0.097
-0.097
-0.085
-0.087
-0.074
-0.088
-0.069
-0.007
0.127
0.221
0.414
0.544
0.663
0.765
0.522
0.057
-0.401
-0.924
-1.139
-1.109
-0.999
-0.835
-0.647
-0.381
-0.149
0.007
0.089
0.136
0.16
0.177
0.197
0.202
0.209
0.213
0.223
0.227
0.233
0.233
0.244
0.246
0.251
0.245
0.253
0.256
0.265
0.265
0.268
0.281
0.282
0.288
0.293
0.3
0.303
0.308
0.309
0.317
0.319
0.325
0.316
0.321
0.32
0.317
0.307
0.3
0.292
0.28
0.265
0.247
0.231
0.215
0.201
0.181
0.161
0.137
0.112
0.091
0.058
0.035
0.009
-0.021
-0.05
-0.074
-0.096
-0.113
-0.142
-0.15
-0.173
-0.188
-0.201
-0.203
-0.206
-0.208
-0.214
-0.208
-0.204
-0.196
-0.194
-0.191
-0.179
-0.175
-0.172
-0.165
-0.151
-0.139
-0.136
-0.137
-0.131
-0.128
-0.126
-0.121
-0.118
-0.115
-0.114
-0.109
-0.114
-0.104
-0.106
-0.105
-0.106
-0.103
-0.101
-0.096
-0.098
-0.101
-0.097
-0.09
-0.07
-0.049
-0.031
-0.017
-0.011
-0.016
0.01
0.046
0.061
0.055
0.056
0.034
0.018
0.004
-0.015
-0.042
-0.074
-0.094
-0.108
-0.122
-0.136
-0.135
-0.139
-0.14
-0.143
-0.136
-0.137
-0.14
-0.133
-0.131
-0.126
-0.125
-0.116
-0.111
-0.109
-0.102
-0.099
-0.105
-0.079
-0.014
0.119
0.218
0.412
0.52
0.623
0.724
0.495
-0.004
-0.495
-1.031
-1.223
-1.198
-1.035
-0.833
-0.605
-0.315
-0.081
0.058
0.127
0.168
0.188
0.211
0.222
0.229
0.242
0.251
0.264
0.263
0.27
0.269
0.281
0.283
0.284
0.289
0.3
0.302
0.305
0.315
0.323
0.33
0.329
0.334
0.34
0.348
0.351
0.355
0.355
0.37
0.363
0.363
0.36
0.358
0.359
0.352
0.344
0.336
0.322
0.307
0.297
0.277
0.26
0.234
0.219
0.192
0.173
0.144
0.121
0.092
0.067
0.046
0.016
-0.012
-0.04
-0.065
-0.093
-0.116
-0.142
-0.156
-0.178
-0.195
-0.211
-0.22
-0.228
-0.231
-0.228
-0.225
-0.225
-0.223
-0.218
-0.215
-0.206
-0.199
-0.191
-0.187
-0.176
-0.174
-0.165
-0.164
-0.162
-0.159
-0.157
-0.149
-0.142
-0.134
-0.136
-0.13
-0.126
-0.126
-0.126
-0.125
-0.123
-0.121
-0.126
-0.125
-0.126
-0.124
-0.124
-0.125
-0.116
-0.101
-0.078
-0.053
-0.03
-0.025
-0.017
0.001
0.04
0.054
0.06
0.057
0.041
0.022
0.003
-0.014
-0.036
-0.063
-0.097
-0.11
-0.127
-0.132
-0.138
-0.134
-0.135
-0.133
-0.134
-0.127
-0.126
-0.125
-0.116
-0.116
-0.108
-0.105
-0.095
-0.095
-0.078
-0.084
-0.09
-0.088
-0.027
0.095
0.188
0.374
0.507
0.61
0.711
0.569
0.092
-0.411
-0.964
-1.25
-1.278
-1.084
-0.872
-0.624
-0.325
-0.071
0.052
0.128
0.173
0.195
0.213
0.227
0.234
0.243
0.258
0.263
0.265
0.266
0.277
0.287
0.287
0.285
0.29
0.296
0.301
0.305
0.306
0.312
0.316
0.323
0.325
0.338
0.341
0.342
0.341
0.355
0.36
0.364
0.358
0.358
0.362
0.354
0.346
0.334
0.328
0.314
0.3
0.277
0.27
0.251
0.233
0.208
0.187
0.168
0.149
0.122
0.096
0.073
0.049
0.021
-0.008
-0.036
-0.062
-0.088
-0.121
-0.138
-0.161
-0.173
-0.195
-0.208
-0.217
-0.221
-0.229
-0.229
-0.226
-0.221
-0.214
-0.216
-0.209
-0.197
-0.187
-0.184
-0.179
-0.172
-0.165
-0.158
-0.152
-0.152
-0.15
-0.143
-0.139
-0.131
-0.134
-0.128
-0.13
-0.125
-0.127
-0.123
-0.123
-0.122
-0.124
-0.122
-0.123
-0.121
-0.121
-0.12
-0.114
-0.117
-0.119
-0.116
-0.109
-0.113
-0.108
-0.101
-0.088
-0.064
-0.032
-0.015
-0.002
0.001
0.014
0.057
0.073
0.077
0.067
0.047
0.028
0.017
-0.005
-0.029
-0.064
-0.09
-0.103
-0.118
-0.132
-0.132
-0.136
-0.139
-0.131
-0.132
-0.13
-0.131
-0.128
-0.126
-0.122
-0.12
-0.114
-0.111
-0.105
-0.1
-0.101
-0.107
-0.104
-0.046
0.077
0.166
0.358
0.504
0.611
0.709
0.554
0.078
-0.422
-0.965
-1.224
-1.239
-1.047
-0.838
-0.588
-0.288
-0.055
0.063
0.13
0.167
0.193
0.208
0.22
0.225
0.232
0.239
0.253
0.255
0.254
0.264
0.272
0.278
0.275
0.283
0.291
0.298
0.296
0.303
0.312
0.317
0.316
0.313
0.324
0.326
0.33
0.329
0.341
0.347
0.343
0.339
0.345
0.338
0.338
0.326
0.319
0.314
0.308
0.288
0.268
0.257
0.239
0.217
0.2
0.184
0.164
0.152
0.12
0.098
0.076
0.056
0.023
-0.004
-0.032
-0.057
-0.09
-0.12
-0.138
-0.164
-0.188
-0.209
-0.22
-0.233
-0.237
-0.246
-0.247
-0.246
-0.238
-0.236
-0.237
-0.23
-0.217
-0.214
-0.211
-0.2
-0.197
-0.191
-0.186
-0.178
-0.179
-0.17
-0.169
-0.17
-0.171
-0.155
-0.152
-0.165
-0.16
-0.158
-0.158
-0.157
-0.148
-0.15
-0.151
-0.15
-0.149
-0.151
-0.147
-0.145
-0.142
-0.139
-0.134
-0.135
-0.13
-0.126
-0.127
-0.126
-0.12
-0.11
-0.108
-0.094
-0.067
-0.038
-0.014
-0.009
-0.009
0.017
0.052
0.065
0.07
0.061
0.043
0.022
0.013
-0.003
-0.024
-0.059
-0.082
-0.095
-0.103
-0.114
-0.113
-0.12
-0.115
-0.115
-0.114
-0.112
-0.112
-0.102
-0.102
-0.09
-0.089
-0.081
-0.079
-0.073
-0.069
-0.067
-0.081
-0.057
0.005
0.111
0.222
0.409
0.529
0.657
0.729
0.495
-0.007
-0.512
-1.017
-1.19
-1.141
-0.941
-0.746
-0.467
-0.189
0.004
0.102
0.156
0.186
0.212
0.228
0.242
0.237
0.253
0.262
0.268
0.268
0.273
0.281
0.289
0.288
0.286
0.297
0.306
0.31
0.31
0.322
0.327
0.335
0.33
0.332
0.334
0.346
0.343
0.347
0.349
0.358
0.362
0.357
0.358
0.358
0.351
0.339
0.334
0.325
0.308
0.29
0.274
0.261
0.251
0.224
0.202
0.187
0.17
0.147
0.124
0.103
0.078
0.056
0.023
-0.001
-0.02
-0.042
-0.078
-0.106
-0.122
-0.145
-0.16
-0.177
-0.185
-0.189
-0.195
-0.202
-0.198
-0.197
-0.189
-0.197
-0.188
-0.184
-0.176
-0.177
-0.172
-0.169
-0.165
-0.16
-0.159
-0.153
-0.154
-0.148
-0.151
-0.149
-0.146
-0.146
-0.149
-0.147
-0.14
-0.141
-0.142
-0.143
-0.142
-0.14
-0.138
-0.143
-0.136
-0.136
-0.134
-0.133
-0.132
-0.132
-0.125
-0.127
-0.123
-0.124
-0.126
-0.121
-0.118
-0.108
-0.103
-0.098
-0.095
-0.085
-0.085
-0.084
-0.079
-0.066
-0.052
-0.024
-0.006
0.014
0.03
0.029
0.024
0.03
0.057
0.074
0.081
0.076
0.066
0.046
0.026
0.008
-0.004
-0.032
-0.051
-0.06
-0.064
-0.076
-0.082
-0.082
-0.086
-0.085
-0.082
-0.079
-0.083
-0.081
-0.078
-0.073
-0.068
-0.061
-0.061
-0.056
-0.049
-0.05
-0.063
-0.031
0.066
0.158
0.306
0.473
0.568
0.713
0.708
0.364
-0.135
-0.661
-1.079
-1.158
-1.056
-0.854
-0.666
-0.381
-0.116
0.057
0.14
0.186
0.214
0.233
0.251
0.263
0.26
0.271
0.28
0.285
0.28
0.285
0.298
0.306
0.305
0.302
0.311
0.317
0.317
0.313
0.322
0.333
0.336
0.338
0.337
0.346
0.353
0.351
0.348
0.357
0.355
0.354
0.351
0.352
0.347
0.336
0.324
0.319
0.309
0.297
0.277
0.265
0.261
0.242
0.215
0.189
0.175
0.16
0.145
0.11
0.101
0.077
0.049
0.016
-0.006
-0.028
-0.051
-0.084
-0.108
-0.124
-0.139
-0.157
-0.179
-0.186
-0.196
-0.197
-0.201
-0.201
-0.201
-0.197
-0.199
-0.192
-0.195
-0.18
-0.176
-0.172
-0.165
-0.159
-0.157
-0.157
-0.152
-0.147
-0.14
-0.143
-0.137
-0.138
-0.139
-0.142
-0.138
-0.137
-0.14
-0.14
-0.139
-0.132
-0.141
-0.135
-0.136
-0.129
-0.134
-0.134
-0.139
-0.143
-0.14
-0.136
-0.14
-0.133
-0.127
-0.105
-0.086
-0.061
-0.045
-0.046
-0.035
-0.003
0.034
0.041
0.049
0.036
0.023
0.009
-0.012
-0.035
-0.068
-0.09
-0.108
-0.12
-0.135
-0.139
-0.144
-0.139
-0.146
-0.142
-0.132
-0.131
-0.136
-0.134
-0.134
-0.125
-0.125
-0.115
-0.106
-0.101
-0.09
-0.095
-0.098
-0.075
0.017
0.123
0.27
0.457
0.564
0.72
0.668
0.286
-0.163
-0.692
-1.078
-1.141
-1.049
-0.892
-0.735
-0.503
-0.249
-0.044
0.06
0.113
0.145
0.161
0.176
0.185
0.195
0.201
0.217
0.222
0.227
0.221
0.231
0.241
0.245
0.238
0.25
0.256
0.262
0.264
0.264
0.274
0.28
0.287
0.288
0.292
0.3
0.298
0.303
0.31
0.312
0.31
0.305
0.311
0.31
0.305
0.298
0.293
0.286
0.272
0.257
0.235
0.219
0.195
0.183
0.162
0.15
0.126
0.108
0.084
0.063
0.046
0.02
-0.006
-0.034
-0.056
-0.076
-0.099
-0.132
-0.14
-0.159
-0.173
-0.187
-0.188
-0.197
-0.206
-0.209
-0.205
-0.206
-0.208
-0.207
-0.211
-0.193
-0.191
-0.194
-0.192
-0.172
-0.169
-0.163
-0.163
-0.159
-0.151
-0.144
-0.141
-0.141
-0.135
-0.128
-0.12
-0.117
-0.115
-0.115
-0.112
-0.117
-0.11
-0.11
-0.102
-0.091
-0.069
-0.047
-0.032
-0.022
-0.023
0.011
0.052
0.072
0.067
0.075
0.052
0.043
0.013
-0.004
-0.029
-0.06
-0.078
-0.094
-0.11
-0.121
-0.122
-0.124
-0.123
-0.128
-0.125
-0.126
-0.122
-0.127
-0.123
-0.119
-0.115
-0.106
-0.096
-0.093
-0.093
-0.091
-0.1
-0.086
-0.025
0.105
0.206
0.397
0.535
0.621
0.731
0.542
0.082
-0.381
-0.918
-1.172
-1.174
-1.064
-0.893
-0.7
-0.425
-0.175
0.004
0.09
0.14
0.164
0.184
0.196
0.203
0.214
0.22
0.231
0.238
0.245
0.238
0.248
0.254
0.259
0.255
0.268
0.272
0.275
0.278
0.285
0.295
0.293
0.3
0.307
0.313
0.316
0.323
0.316
0.326
0.328
0.333
0.331
0.339
0.328
0.319
0.314
0.305
0.303
0.289
0.271
0.252
0.239
0.219
0.195
0.167
0.148
0.124
0.107
0.082
0.058
0.034
0.005
-0.02
-0.046
-0.063
-0.085
-0.109
-0.135
-0.146
-0.164
-0.168
-0.188
-0.188
-0.19
-0.189
-0.192
-0.19
-0.188
-0.182
-0.178
-0.176
-0.175
-0.173
-0.169
-0.169
-0.155
-0.152
-0.143
-0.143
-0.139
-0.139
-0.138
-0.133
-0.127
-0.125
-0.124
-0.123
-0.125
-0.126
-0.125
-0.127
-0.12
-0.108
-0.098
-0.07
-0.051
-0.034
-0.028
-0.021
0.022
0.046
0.053
0.054
0.046
0.018
0.008
-0.02
-0.036
-0.072
-0.106
-0.121
-0.131
-0.147
-0.154
-0.157
-0.16
-0.161
-0.161
-0.157
-0.16
-0.158
-0.159
-0.15
-0.141
-0.133
-0.13
-0.118
-0.114
-0.111
-0.114
-0.119
-0.087
0.018
0.145
0.279
0.462
0.538
0.64
0.644
0.318
-0.195
-0.701
-1.166
-1.283
-1.225
-1.03
-0.828
-0.544
-0.252
-0.033
0.075
0.132
0.166
0.186
0.204
0.212
0.222
0.229
0.244
0.247
0.252
0.26
0.268
0.274
0.273
0.277
0.284
0.289
0.292
0.292
0.296
0.311
0.31
0.315
0.32
0.329
0.329
0.337
0.334
0.337
0.342
0.341
0.344
0.345
0.344
0.328
0.33
0.319
0.31
0.286
0.267
0.243
0.233
0.217
0.194
0.172
0.146
0.127
0.098
0.079
0.056
0.029
0.003
-0.023
-0.047
-0.069
-0.096
-0.115
-0.135
-0.151
-0.165
-0.181
-0.194
-0.201
-0.201
-0.208
-0.201
-0.203
-0.196
-0.194
-0.187
-0.187
-0.177
-0.172
-0.168
-0.16
-0.155
-0.145
-0.142
-0.141
-0.144
-0.13
-0.13
-0.127
-0.123
-0.119
-0.122
-0.119
-0.12
-0.116
-0.115
-0.117
-0.118
-0.12
-0.118
-0.12
-0.113
-0.098
-0.078
-0.05
-0.033
-0.025
-0.019
0.005
0.047
0.057
0.061
0.058
0.034
0.023
-0.006
-0.021
-0.05
-0.079
-0.105
-0.119
-0.137
-0.146
-0.15
-0.143
-0.144
-0.148
-0.147
-0.15
-0.14
-0.147
-0.142
-0.135
-0.128
-0.127
-0.115
-0.11
-0.103
-0.106
-0.111
-0.105
-0.042
0.093
0.187
0.369
0.499
0.593
0.68
0.52
0.035
-0.467
-1.02
-1.28
-1.301
-1.116
-0.895
-0.634
-0.318
-0.067
0.064
0.137
0.178
0.207
0.223
0.231
0.24
0.248
0.262
0.271
0.276
0.275
0.288
0.294
0.299
0.302
0.306
0.318
0.319
0.319
0.323
0.334
0.34
0.339
0.335
0.35
0.353
0.361
0.357
0.363
0.37
0.372
0.368
0.362
0.365
0.359
0.352
0.339
0.33
0.312
0.303
0.282
0.264
0.243
0.227
0.202
0.185
0.173
0.147
0.122
0.094
0.077
0.056
0.037
0.007
-0.015
-0.041
-0.064
-0.099
-0.118
-0.134
-0.152
-0.168
-0.173
-0.173
-0.182
-0.191
-0.19
-0.186
-0.187
-0.183
-0.18
-0.174
-0.172
-0.165
-0.17
-0.161
-0.153
-0.149
-0.142
-0.139
-0.133
-0.133
-0.132
-0.131
-0.13
-0.133
-0.128
-0.128
-0.121
-0.121
-0.12
-0.126
-0.123
-0.125
-0.127
-0.125
-0.13
-0.122
-0.128
-0.116
-0.111
-0.091
-0.063
-0.032
-0.02
-0.012
-0.006
0.034
0.055
0.059
0.064
0.051
0.032
0.011
-0.004
-0.025
-0.052
-0.089
-0.106
-0.122
-0.13
-0.14
-0.14
-0.136
-0.135
-0.134
-0.133
-0.129
-0.13
-0.124
-0.119
-0.114
-0.114
-0.103
-0.097
-0.087
-0.089
-0.086
-0.098
-0.078
-0.006
0.107
0.227
0.405
0.52
0.63
0.669
0.416
-0.116
-0.631
-1.127
-1.288
-1.225
-1
-0.778
-0.488
-0.197
-0.003
0.096
0.151
0.179
0.208
0.226
0.236
0.237
0.245
0.25
0.258
0.256
0.265
0.274
0.282
0.283
0.283
0.293
0.3
0.31
0.308
0.312
0.319
0.329
0.323
0.326
0.338
0.35
0.346
0.35
0.358
0.36
0.358
0.346
0.348
0.342
0.333
0.317
0.306
0.289
0.28
0.253
0.235
0.222
0.206
0.177
0.153
0.142
0.123
0.104
0.078
0.063
0.033
0.023
-0.012
-0.033
-0.056
-0.078
-0.107
-0.132
-0.153
-0.169
-0.188
-0.195
-0.199
-0.198
-0.201
-0.206
-0.199
-0.194
-0.183
-0.182
-0.18
-0.177
-0.169
-0.168
-0.16
-0.156
-0.15
-0.147
-0.146
-0.14
-0.144
-0.138
-0.141
-0.136
-0.135
-0.131
-0.136
-0.133
-0.134
-0.13
-0.134
-0.136
-0.136
-0.136
-0.134
-0.135
-0.138
-0.139
-0.138
-0.137
-0.132
-0.13
-0.13
-0.13
-0.115
-0.103
-0.074
-0.045
-0.025
-0.016
-0.012
0.014
0.047
0.065
0.063
0.066
0.039
0.024
0.01
-0.006
-0.04
-0.073
-0.098
-0.112
-0.121
-0.135
-0.133
-0.138
-0.133
-0.134
-0.131
-0.131
-0.121
-0.127
-0.125
-0.126
-0.121
-0.12
-0.114
-0.104
-0.099
-0.093
-0.103
-0.101
-0.06
0.056
0.135
0.318
0.47
0.572
0.688
0.587
0.154
-0.354
-0.913
-1.215
-1.249
-1.078
-0.867
-0.628
-0.324
-0.083
0.049
0.118
0.158
0.177
0.198
0.212
0.219
0.22
0.234
0.241
0.241
0.244
0.251
0.271
0.272
0.279
0.27
0.291
0.292
0.288
0.291
0.3
0.306
0.313
0.312
0.313
0.323
0.321
0.323
0.327
0.333
0.332
0.329
0.319
0.326
0.317
0.305
0.287
0.28
0.269
0.252
0.228
0.207
0.193
0.17
0.151
0.129
0.114
0.102
0.072
0.049
0.034
0.015
-0.006
-0.031
-0.055
-0.07
-0.097
-0.124
-0.143
-0.161
-0.179
-0.189
-0.205
-0.204
-0.205
-0.207
-0.209
-0.204
-0.204
-0.198
-0.191
-0.188
-0.175
-0.178
-0.172
-0.171
-0.163
-0.155
-0.156
-0.155
-0.146
-0.147
-0.141
-0.143
-0.135
-0.136
-0.136
-0.132
-0.136
-0.132
-0.131
-0.13
-0.136
-0.131
-0.131
-0.126
-0.131
-0.125
-0.125
-0.12
-0.121
-0.118
-0.111
-0.106
-0.1
-0.096
-0.085
-0.063
-0.029
-0.018
0.014
0.012
0.022
0.052
0.081
0.084
0.084
0.071
0.046
0.031
0.012
-0.007
-0.05
-0.065
-0.085
-0.099
-0.111
-0.107
-0.112
-0.115
-0.114
-0.112
-0.108
-0.106
-0.109
-0.109
-0.103
-0.099
-0.091
-0.091
-0.079
-0.079
-0.076
-0.083
-0.093
-0.074
0.012
0.1
0.257
0.437
0.544
0.69
0.657
0.309
-0.19
-0.729
-1.138
-1.22
-1.098
-0.881
-0.672
-0.372
-0.106
0.048
0.134
0.172
0.201
0.217
0.24
0.241
0.254
0.261
0.273
0.273
0.273
0.277
0.293
0.298
0.299
0.295
0.309
0.316
0.321
0.319
0.322
0.335
0.333
0.331
0.336
0.347
0.347
0.349
0.345
0.353
0.355
0.352
0.349
0.351
0.349
0.334
0.319
0.31
0.299
0.279
0.255
0.239
0.22
0.199
0.182
0.152
0.141
0.127
0.106
0.084
0.065
0.05
0.021
-0.004
-0.025
-0.035
-0.068
-0.091
-0.118
-0.132
-0.148
-0.162
-0.174
-0.181
-0.185
-0.194
-0.193
-0.187
-0.181
-0.184
-0.177
-0.178
-0.172
-0.169
-0.166
-0.167
-0.151
-0.144
-0.141
-0.142
-0.132
-0.13
-0.129
-0.134
-0.128
-0.123
-0.128
-0.129
-0.135
-0.129
-0.136
-0.136
-0.137
-0.134
-0.13
-0.128
-0.132
-0.137
-0.125
-0.123
-0.119
-0.12
-0.114
-0.114
-0.113
-0.11
-0.101
-0.087
-0.061
-0.041
-0.015
-0.014
-0.015
0.01
0.046
0.062
0.058
0.063
0.043
0.032
0.01
0.003
-0.032
-0.061
-0.078
-0.086
-0.1
-0.108
-0.098
-0.105
-0.098
-0.096
-0.092
-0.092
-0.089
-0.09
-0.08
-0.083
-0.074
-0.076
-0.07
-0.062
-0.058
-0.063
-0.075
-0.068
-0.015
0.091
0.184
0.37
0.498
0.631
0.732
0.529
0.048
-0.453
-0.985
-1.164
-1.136
-0.942
-0.743
-0.486
-0.194
0.014
0.124
0.176
0.208
0.228
0.244
0.258
0.262
0.263
0.272
0.281
0.279
0.277
0.285
0.295
0.29
0.29
0.293
0.311
0.311
0.312
0.311
0.328
0.33
0.333
0.335
0.345
0.345
0.346
0.343
0.345
0.349
0.346
0.341
0.334
0.336
0.318
0.306
0.29
0.285
0.273
0.251
0.231
0.215
0.198
0.176
0.155
0.139
0.128
0.1
0.079
0.061
0.051
0.032
0.005
-0.018
-0.038
-0.06
-0.085
-0.105
-0.121
-0.137
-0.159
-0.165
-0.176
-0.176
-0.185
-0.185
-0.187
-0.18
-0.178
-0.178
-0.176
-0.167
-0.165
-0.166
-0.162
-0.164
-0.151
-0.149
-0.15
-0.147
-0.143
-0.142
-0.139
-0.144
-0.137
-0.136
-0.138
-0.141
-0.142
-0.136
-0.144
-0.144
-0.141
-0.129
-0.134
-0.136
-0.139
-0.126
-0.11
-0.083
-0.068
-0.055
-0.049
-0.05
-0.015
0.025
0.037
0.042
0.038
0.019
0.003
-0.021
-0.038
-0.075
-0.097
-0.118
-0.139
-0.155
-0.156
-0.156
-0.158
-0.155
-0.154
-0.146
-0.143
-0.148
-0.15
-0.142
-0.141
-0.136
-0.129
-0.12
-0.115
-0.108
-0.107
-0.113
-0.102
-0.048
0.062
0.15
0.334
0.473
0.605
0.747
0.553
0.09
-0.378
-0.929
-1.144
-1.115
-0.978
-0.8
-0.611
-0.351
-0.115
0.026
0.097
0.139
0.157
0.175
0.186
0.2
0.203
0.205
0.206
0.213
0.21
0.22
0.231
0.241
0.239
0.236
0.246
0.249
0.256
0.262
0.26
0.264
0.274
0.273
0.285
0.29
0.293
0.302
0.298
0.305
0.302
0.299
0.297
0.301
0.291
0.285
0.262
0.254
0.236
0.224
0.2
0.185
0.168
0.15
0.134
0.114
0.1
0.078
0.058
0.03
0.016
-0.009
-0.025
-0.049
-0.065
-0.088
-0.106
-0.126
-0.147
-0.167
-0.175
-0.186
-0.193
-0.192
-0.201
-0.204
-0.201
-0.196
-0.196
-0.193
-0.191
-0.183
-0.173
-0.162
-0.161
-0.163
-0.152
-0.149
-0.15
-0.145
-0.139
-0.139
-0.136
-0.136
-0.132
-0.129
-0.122
-0.125
-0.123
-0.114
-0.111
-0.113
-0.099
-0.072
-0.063
-0.052
-0.052
-0.041
-0.013
0.019
0.021
0.028
0.014
-0.008
-0.029
-0.053
-0.073
-0.1
-0.13
-0.144
-0.155
-0.174
-0.179
-0.18
-0.177
-0.181
-0.179
-0.173
-0.166
-0.167
-0.169
-0.163
-0.16
-0.146
-0.146
-0.139
-0.132
-0.123
-0.123
-0.123
-0.123
-0.073
0.044
0.161
0.329
0.498
0.588
0.722
0.563
0.123
-0.329
-0.876
-1.142
-1.149
-1.052
-0.889
-0.709
-0.452
-0.202
-0.017
0.082
0.135
0.161
0.181
0.197
0.212
0.223
0.231
0.236
0.245
0.252
0.25
0.256
0.267
0.272
0.275
0.272
0.281
0.283
0.29
0.301
0.308
0.323
0.323
0.326
0.33
0.341
0.342
0.35
0.349
0.353
0.352
0.35
0.346
0.349
0.342
0.325
0.314
0.292
0.284
0.264
0.251
0.227
0.211
0.186
0.173
0.149
0.126
0.101
0.08
0.065
0.041
0.017
-0.012
-0.028
-0.052
-0.07
-0.09
-0.11
-0.126
-0.135
-0.143
-0.144
-0.15
-0.154
-0.16
-0.16
-0.156
-0.156
-0.151
-0.151
-0.147
-0.141
-0.132
-0.131
-0.125
-0.119
-0.11
-0.106
-0.105
-0.099
-0.096
-0.1
-0.098
-0.092
-0.091
-0.082
-0.084
-0.075
-0.067
-0.036
-0.03
-0.01
-0.003
0.003
0.018
0.056
0.075
0.083
0.082
0.059
0.046
0.031
0.006
-0.02
-0.052
-0.081
-0.098
-0.113
-0.12
-0.123
-0.128
-0.131
-0.133
-0.131
-0.13
-0.126
-0.127
-0.119
-0.12
-0.114
-0.113
-0.105
-0.1
-0.096
-0.092
-0.095
-0.102
-0.064
0.036
0.16
0.309
0.482
0.556
0.672
0.638
0.262
-0.237
-0.763
-1.19
-1.274
-1.187
-0.997
-0.798
-0.51
-0.222
-0.017
0.086
0.144
0.176
0.205
0.215
0.226
0.225
0.237
0.245
0.255
0.258
0.265
0.269
0.274
0.282
0.288
0.29
0.294
0.299
0.299
0.307
0.31
0.315
0.316
0.326
0.334
0.338
0.346
0.349
0.354
0.355
0.356
0.347
0.346
0.347
0.335
0.318
0.308
0.291
0.274
0.254
0.231
0.209
0.189
0.162
0.138
0.12
0.099
0.083
0.051
0.035
0.005
-0.013
-0.041
-0.059
-0.082
-0.103
-0.127
-0.141
-0.156
-0.166
-0.174
-0.185
-0.19
-0.196
-0.195
-0.201
-0.197
-0.191
-0.181
-0.179
-0.165
-0.163
-0.157
-0.151
-0.144
-0.14
-0.135
-0.136
-0.133
-0.126
-0.125
-0.12
-0.126
-0.119
-0.126
-0.103
-0.097
-0.072
-0.053
-0.041
-0.037
-0.038
-0.022
0.02
0.038
0.033
0.035
0.013
-0.016
-0.032
-0.049
-0.074
-0.104
-0.137
-0.147
-0.159
-0.17
-0.174
-0.177
-0.177
-0.174
-0.167
-0.168
-0.167
-0.165
-0.16
-0.158
-0.155
-0.152
-0.14
-0.134
-0.127
-0.124
-0.124
-0.137
-0.111
-0.037
0.088
0.211
0.388
0.493
0.602
0.643
0.373
-0.164
-0.677
-1.185
-1.338
-1.274
-1.055
-0.82
-0.517
-0.224
-0.022
0.077
0.135
0.161
0.183
0.198
0.214
0.215
0.228
0.24
0.241
0.243
0.245
0.25
0.26
0.262
0.258
0.271
0.277
0.284
0.285
0.294
0.3
0.31
0.312
0.316
0.322
0.323
0.328
0.328
0.333
0.337
0.343
0.333
0.334
0.326
0.317
0.298
0.285
0.271
0.25
0.233
0.208
0.193
0.17
0.147
0.125
0.104
0.083
0.067
0.036
0.016
-0.004
-0.028
-0.052
-0.071
-0.09
-0.111
-0.133
-0.16
-0.173
-0.187
-0.201
-0.218
-0.217
-0.221
-0.213
-0.218
-0.209
-0.198
-0.194
-0.196
-0.188
-0.182
-0.181
-0.172
-0.169
-0.164
-0.156
-0.145
-0.146
-0.141
-0.139
-0.135
-0.139
-0.134
-0.136
-0.131
-0.135
-0.133
-0.126
-0.115
-0.095
-0.068
-0.042
-0.032
-0.033
-0.031
0.006
0.039
0.047
0.042
0.041
0.019
-0.002
-0.018
-0.04
-0.065
-0.097
-0.116
-0.131
-0.138
-0.151
-0.148
-0.156
-0.157
-0.159
-0.156
-0.158
-0.153
-0.153
-0.146
-0.14
-0.136
-0.134
-0.128
-0.117
-0.116
-0.109
-0.11
-0.113
-0.087
0.009
0.104
0.255
0.431
0.521
0.64
0.624
0.297
-0.224
-0.742
-1.185
-1.286
-1.176
-0.956
-0.732
-0.431
-0.162
0.001
0.087
0.139
0.166
0.184
0.2
0.204
0.212
0.218
0.23
0.236
0.239
0.239
0.252
0.26
0.261
0.261
0.274
0.282
0.291
0.293
0.3
0.309
0.313
0.315
0.321
0.335
0.339
0.342
0.342
0.351
0.348
0.35
0.344
0.345
0.34
0.331
0.317
0.294
0.282
0.264
0.248
0.223
0.212
0.195
0.17
0.147
0.131
0.111
0.091
0.071
0.051
0.029
0.011
-0.011
-0.039
-0.057
-0.082
-0.097
-0.124
-0.135
-0.151
-0.164
-0.167
-0.169
-0.174
-0.175
-0.166
-0.162
-0.164
-0.152
-0.155
-0.143
-0.132
-0.128
-0.119
-0.122
-0.109
-0.112
-0.104
-0.102
-0.105
-0.104
-0.098
-0.098
-0.102
-0.097
-0.096
-0.092
-0.099
-0.098
-0.104
-0.097
-0.106
-0.101
-0.107
-0.111
-0.107
-0.098
-0.088
-0.063
-0.047
-0.028
-0.012
-0.019
-0.016
0.013
0.049
0.047
0.043
0.038
0.013
0.003
-0.015
-0.03
-0.062
-0.095
-0.109
-0.115
-0.125
-0.129
-0.126
-0.126
-0.13
-0.125
-0.129
-0.131
-0.124
-0.121
-0.125
-0.121
-0.114
-0.105
-0.1
-0.089
-0.088
-0.083
-0.081
-0.085
-0.057
0.032
0.127
0.29
0.454
0.547
0.692
0.65
0.265
-0.224
-0.766
-1.143
-1.207
-1.071
-0.872
-0.658
-0.372
-0.112
0.035
0.111
0.16
0.189
0.204
0.215
0.228
0.233
0.241
0.251
0.257
0.251
0.259
0.269
0.28
0.279
0.284
0.294
0.306
0.302
0.308
0.318
0.326
0.327
0.328
0.34
0.346
0.348
0.34
0.348
0.349
0.349
0.339
0.328
0.319
0.329
0.312
0.296
0.289
0.271
0.257
0.238
0.223
0.209
0.192
0.173
0.155
0.131
0.119
0.093
0.074
0.056
0.032
0.009
-0.018
-0.04
-0.06
-0.087
-0.107
-0.135
-0.152
-0.154
-0.178
-0.179
-0.179
-0.183
-0.189
-0.18
-0.178
-0.171
-0.173
-0.164
-0.155
-0.149
-0.138
-0.135
-0.128
-0.121
-0.112
-0.109
-0.108
-0.114
-0.104
-0.113
-0.114
-0.108
-0.11
-0.109
-0.111
-0.112
-0.11
-0.111
-0.112
-0.116
-0.125
-0.118
-0.124
-0.12
-0.118
-0.115
-0.121
-0.12
-0.118
-0.109
-0.108
-0.114
-0.106
-0.108
-0.107
-0.107
-0.115
-0.108
-0.103
-0.107
-0.1
-0.089
-0.078
-0.054
-0.038
-0.019
-0.004
0.003
0.004
0.004
0.013
0.033
0.037
0.035
0.024
-0.002
-0.013
-0.02
-0.04
-0.062
-0.068
-0.087
-0.087
-0.094
-0.105
-0.112
-0.107
-0.111
-0.101
-0.108
-0.104
-0.108
-0.099
-0.099
-0.095
-0.087
-0.084
-0.08
-0.075
-0.076
-0.086
-0.067
-0.002
0.102
0.206
0.38
0.498
0.64
0.727
0.501
0.02
-0.481
-0.991
-1.15
-1.104
-0.922
-0.737
-0.49
-0.211
-0.008
0.087
0.136
0.167
0.182
0.197
0.215
0.217
0.218
0.235
0.244
0.242
0.246
0.25
0.257
0.258
0.259
0.266
0.276
0.277
0.279
0.282
0.289
0.299
0.299
0.302
0.31
0.319
0.319
0.321
0.32
0.324
0.315
0.317
0.308
0.308
0.296
0.286
0.275
0.261
0.248
0.229
0.208
0.194
0.171
0.149
0.13
0.113
0.098
0.08
0.057
0.036
0.021
0.003
-0.017
-0.038
-0.057
-0.074
-0.099
-0.124
-0.148
-0.16
-0.186
-0.195
-0.205
-0.207
-0.211
-0.209
-0.211
-0.203
-0.196
-0.194
-0.184
-0.176
-0.167
-0.169
-0.162
-0.162
-0.149
-0.15
-0.144
-0.142
-0.135
-0.137
-0.133
-0.133
-0.13
-0.128
-0.131
-0.13
-0.136
-0.135
-0.139
-0.134
-0.135
-0.135
-0.144
-0.147
-0.144
-0.142
-0.142
-0.14
-0.139
-0.139
-0.136
-0.136
-0.132
-0.127
-0.123
-0.123
-0.119
-0.124
-0.111
-0.108
-0.109
-0.105
-0.099
-0.1
-0.097
-0.094
-0.093
-0.085
-0.077
-0.062
-0.049
-0.026
-0.011
0.011
0.017
0.027
0.026
0.029
0.043
0.06
0.07
0.066
0.052
0.029
0.02
0.011
-0.002
-0.022
-0.04
-0.05
-0.055
-0.062
-0.065
-0.067
-0.071
-0.062
-0.06
-0.063
-0.067
-0.055
-0.049
-0.044
-0.046
-0.033
-0.026
-0.019
-0.022
-0.028
-0.02
0.04
0.154
0.245
0.424
0.545
0.679
0.779
0.591
0.109
-0.369
-0.899
-1.089
-1.074
-0.899
-0.72
-0.51
-0.243
-0.02
0.098
0.164
0.198
0.212
0.231
0.242
0.252
0.253
0.266
0.268
0.275
0.271
0.275
0.281
0.282
0.285
0.285
0.299
0.3
0.3
0.299
0.31
0.313
0.317
0.319
0.326
0.328
0.335
0.327
0.332
0.339
0.343
0.335
0.328
0.332
0.321
0.31
0.295
0.288
0.268
0.254
0.234
0.22
0.198
0.178
0.16
0.137
0.118
0.102
0.077
0.057
0.04
0.019
0
-0.025
-0.044
-0.068
-0.086
-0.112
-0.13
-0.144
-0.16
-0.176
-0.193
-0.198
-0.205
-0.204
-0.204
-0.2
-0.195
-0.186
-0.184
-0.176
-0.169
-0.158
-0.156
-0.15
-0.141
-0.131
-0.132
-0.123
-0.116
-0.112
-0.105
-0.109
-0.105
-0.107
-0.1
-0.102
-0.101
-0.102
-0.098
-0.1
-0.097
-0.098
-0.098
-0.102
-0.102
-0.103
-0.099
-0.096
-0.102
-0.1
-0.097
-0.091
-0.095
-0.091
-0.087
-0.077
-0.074
-0.061
-0.033
-0.011
-0.002
0.002
0.002
0.005
0.01
0.033
0.052
0.047
0.044
0.021
0
-0.007
-0.02
-0.04
-0.069
-0.077
-0.074
-0.084
-0.099
-0.105
-0.108
-0.098
-0.092
-0.096
-0.099
-0.097
-0.096
-0.087
-0.084
-0.082
-0.08
-0.074
-0.068
-0.073
-0.08
-0.059
0.019
0.128
0.243
0.425
0.535
0.69
0.725
0.436
-0.02
-0.514
-0.993
-1.104
-1.049
-0.919
-0.765
-0.564
-0.299
-0.08
0.038
0.111
0.147
0.169
0.183
0.195
0.2
0.211
0.218
0.222
0.225
0.224
0.23
0.237
0.246
0.246
0.247
0.251
0.259
0.255
0.262
0.269
0.268
0.276
0.273
0.276
0.285
0.295
0.3
0.297
0.299
0.307
0.3
0.298
0.296
0.297
0.278
0.265
0.253
0.24
0.226
0.2
0.182
0.161
0.145
0.126
0.106
0.083
0.068
0.045
0.02
0.002
-0.017
-0.044
-0.063
-0.082
-0.099
-0.118
-0.136
-0.154
-0.173
-0.182
-0.194
-0.197
-0.206
-0.211
-0.215
-0.214
-0.207
-0.202
-0.199
-0.193
-0.184
-0.173
-0.166
-0.164
-0.156
-0.149
-0.139
-0.139
-0.132
-0.131
-0.125
-0.125
-0.125
-0.118
-0.109
-0.109
-0.114
-0.112
-0.112
-0.106
-0.111
-0.11
-0.11
-0.105
-0.112
-0.112
-0.112
-0.107
-0.098
-0.08
-0.06
-0.033
-0.019
-0.015
-0.008
0.014
0.053
0.064
0.064
0.063
0.044
0.023
0.009
-0.015
-0.046
-0.081
-0.103
-0.117
-0.124
-0.136
-0.136
-0.137
-0.141
-0.133
-0.135
-0.131
-0.133
-0.131
-0.13
-0.123
-0.115
-0.108
-0.099
-0.101
-0.092
-0.09
-0.095
-0.085
-0.024
0.093
0.2
0.39
0.526
0.632
0.747
0.537
0.06
-0.407
-0.932
-1.152
-1.133
-1.011
-0.844
-0.648
-0.385
-0.145
0.018
0.104
0.154
0.183
0.194
0.209
0.217
0.231
0.243
0.25
0.253
0.26
0.266
0.272
0.278
0.282
0.287
0.289
0.299
0.298
0.305
0.306
0.309
0.31
0.312
0.321
0.325
0.331
0.336
0.339
0.334
0.349
0.347
0.345
0.339
0.338
0.329
0.32
0.305
0.29
0.272
0.257
0.237
0.217
0.193
0.172
0.153
0.128
0.1
0.079
0.056
0.032
0.013
-0.012
-0.031
-0.057
-0.077
-0.097
-0.114
-0.132
-0.146
-0.167
-0.18
-0.189
-0.194
-0.194
-0.195
-0.193
-0.196
-0.191
-0.188
-0.182
-0.176
-0.164
-0.16
-0.158
-0.152
-0.147
-0.134
-0.136
-0.126
-0.125
-0.117
-0.123
-0.117
-0.113
-0.112
-0.107
-0.109
-0.112
-0.109
-0.107
-0.101
-0.099
-0.104
-0.097
-0.102
-0.1
-0.106
-0.105
-0.103
-0.087
-0.069
-0.038
-0.023
-0.012
0
0.031
0.06
0.065
0.072
0.062
0.044
0.017
0
-0.025
-0.049
-0.079
-0.098
-0.113
-0.123
-0.132
-0.135
-0.134
-0.141
-0.138
-0.134
-0.13
-0.13
-0.127
-0.125
-0.122
-0.117
-0.109
-0.104
-0.095
-0.093
-0.086
-0.098
-0.073
0.005
0.127
0.252
0.43
0.543
0.654
0.732
0.466
-0.053
-0.545
-1.066
-1.22
-1.186
-1.002
-0.817
-0.564
-0.277
-0.051
0.063
0.136
0.175
0.19
0.203
0.221
0.227
0.236
0.244
0.248
0.253
0.256
0.264
0.268
0.273
0.273
0.284
0.294
0.299
0.297
0.304
0.306
0.315
0.317
0.321
0.33
0.331
0.331
0.335
0.342
0.34
0.342
0.339
0.345
0.34
0.333
0.319
0.309
0.295
0.286
0.267
0.244
0.223
0.209
0.188
0.166
0.148
0.124
0.1
0.07
0.05
0.026
0
-0.029
-0.049
-0.075
-0.099
-0.122
-0.143
-0.158
-0.17
-0.193
-0.207
-0.214
-0.218
-0.219
-0.225
-0.221
-0.219
-0.209
-0.205
-0.197
-0.192
-0.184
-0.176
-0.179
-0.166
-0.166
-0.159
-0.151
-0.146
-0.147
-0.138
-0.134
-0.133
-0.131
-0.131
-0.128
-0.126
-0.122
-0.123
-0.126
-0.122
-0.118
-0.118
-0.114
-0.115
-0.113
-0.114
-0.108
-0.116
-0.112
-0.111
-0.108
-0.109
-0.108
-0.107
-0.101
-0.098
-0.097
-0.097
-0.097
-0.093
-0.096
-0.092
-0.09
-0.087
-0.089
-0.089
-0.084
-0.078
-0.074
-0.072
-0.065
-0.069
-0.066
-0.064
-0.052
-0.043
-0.024
-0.013
0.014
0.026
0.049
0.046
0.053
0.057
0.064
0.089
0.092
0.098
0.087
0.074
0.049
0.039
0.028
0.011
-0.011
-0.02
-0.031
-0.036
-0.048
-0.051
-0.056
-0.055
-0.056
-0.051
-0.051
-0.055
-0.05
-0.049
-0.042
-0.038
-0.027
-0.029
-0.026
-0.032
-0.035
-0.021
0.059
0.174
0.29
0.46
0.578
0.685
0.728
0.524
0.001
-0.487
-0.99
-1.181
-1.155
-0.959
-0.761
-0.514
-0.237
-0.014
0.111
0.16
0.2
0.22
0.241
0.247
0.252
0.256
0.26
0.27
0.271
0.273
0.283
0.283
0.288
0.285
0.292
0.294
0.296
0.3
0.299
0.305
0.309
0.313
0.32
0.319
0.319
0.317
0.317
0.326
0.334
0.33
0.326
0.32
0.325
0.315
0.312
0.298
0.29
0.273
0.258
0.233
0.225
0.201
0.186
0.163
0.142
0.127
0.109
0.092
0.064
0.045
0.025
0
-0.017
-0.041
-0.073
-0.094
-0.125
-0.143
-0.166
-0.185
-0.21
-0.218
-0.221
-0.232
-0.231
-0.236
-0.227
-0.221
-0.225
-0.224
-0.21
-0.21
-0.199
-0.196
-0.188
-0.179
-0.173
-0.175
-0.162
-0.151
-0.146
-0.144
-0.141
-0.136
-0.145
-0.134
-0.135
-0.131
-0.129
-0.13
-0.131
-0.127
-0.127
-0.125
-0.131
-0.131
-0.128
-0.13
-0.126
-0.124
-0.12
-0.124
-0.116
-0.122
-0.11
-0.109
-0.111
-0.108
-0.103
-0.091
-0.094
-0.088
-0.09
-0.089
-0.089
-0.077
-0.083
-0.071
-0.078
-0.068
-0.067
-0.064
-0.054
-0.041
-0.024
0.002
0.018
0.029
0.04
0.041
0.028
0.049
0.066
0.072
0.061
0.04
0.015
-0.001
-0.001
-0.022
-0.046
-0.06
-0.06
-0.065
-0.07
-0.076
-0.085
-0.082
-0.087
-0.083
-0.087
-0.08
-0.076
-0.072
-0.071
-0.066
-0.06
-0.051
-0.045
-0.045
-0.049
-0.05
-0.001
0.111
0.194
0.373
0.519
0.623
0.736
0.65
0.233
-0.274
-0.813
-1.146
-1.18
-1.041
-0.837
-0.63
-0.355
-0.094
0.06
0.134
0.17
0.197
0.217
0.23
0.234
0.24
0.249
0.257
0.259
0.263
0.267
0.274
0.279
0.277
0.285
0.285
0.298
0.294
0.301
0.303
0.308
0.308
0.312
0.318
0.321
0.325
0.325
0.33
0.335
0.337
0.332
0.33
0.33
0.329
0.314
0.31
0.296
0.286
0.272
0.25
0.228
0.206
0.19
0.167
0.148
0.129
0.111
0.08
0.056
0.032
0.011
-0.017
-0.04
-0.062
-0.085
-0.106
-0.129
-0.149
-0.164
-0.178
-0.199
-0.21
-0.219
-0.223
-0.224
-0.225
-0.221
-0.212
-0.207
-0.201
-0.197
-0.18
-0.179
-0.17
-0.158
-0.153
-0.142
-0.139
-0.137
-0.134
-0.129
-0.123
-0.118
-0.118
-0.116
-0.114
-0.116
-0.12
-0.123
-0.114
-0.121
-0.119
-0.12
-0.118
-0.125
-0.122
-0.123
-0.118
-0.122
-0.115
-0.12
-0.115
-0.113
-0.11
-0.109
-0.11
-0.106
-0.109
-0.101
-0.102
-0.093
-0.098
-0.097
-0.091
-0.085
-0.08
-0.078
-0.074
-0.076
-0.071
-0.069
-0.068
-0.07
-0.059
-0.052
-0.056
-0.054
-0.052
-0.048
-0.036
-0.02
0
0.018
0.035
0.043
0.047
0.048
0.053
0.072
0.088
0.096
0.082
0.07
0.045
0.035
0.029
0.019
-0.007
-0.027
-0.032
-0.038
-0.043
-0.055
-0.062
-0.068
-0.062
-0.062
-0.057
-0.065
-0.055
-0.055
-0.047
-0.046
-0.047
-0.043
-0.039
-0.039
-0.044
-0.036
0.018
0.13
0.216
0.392
0.526
0.649
0.744
0.634
0.179
-0.313
-0.852
-1.126
-1.141
-0.983
-0.794
-0.587
-0.313
-0.076
0.064
0.132
0.17
0.188
0.204
0.218
0.226
0.233
0.242
0.252
0.248
0.249
0.244
0.254
0.26
0.267
0.269
0.274
0.279
0.285
0.285
0.291
0.289
0.294
0.292
0.299
0.307
0.31
0.307
0.311
0.319
0.32
0.321
0.32
0.326
0.323
0.317
0.308
0.296
0.281
0.271
0.245
0.226
0.215
0.195
0.171
0.152
0.141
0.117
0.1
0.077
0.062
0.039
0.016
-0.011
-0.03
-0.05
-0.081
-0.107
-0.13
-0.142
-0.163
-0.184
-0.197
-0.199
-0.207
-0.212
-0.219
-0.216
-0.221
-0.213
-0.21
-0.202
-0.2
-0.189
-0.186
-0.176
-0.165
-0.157
-0.151
-0.15
-0.137
-0.135
-0.125
-0.123
-0.118
-0.118
-0.113
-0.121
-0.112
-0.111
-0.11
-0.109
-0.114
-0.108
-0.112
-0.109
-0.114
-0.116
-0.115
-0.108
-0.112
-0.109
-0.108
-0.105
-0.106
-0.105
-0.102
-0.096
-0.092
-0.096
-0.092
-0.089
-0.082
-0.083
-0.079
-0.08
-0.072
-0.066
-0.057
-0.049
-0.024
-0.008
0.014
0.026
0.033
0.031
0.036
0.056
0.071
0.082
0.082
0.06
0.037
0.028
0.02
0.003
-0.018
-0.031
-0.044
-0.047
-0.043
-0.056
-0.058
-0.064
-0.061
-0.061
-0.057
-0.056
-0.049
-0.049
-0.044
-0.044
-0.034
-0.028
-0.03
-0.027
-0.032
-0.033
0.004
0.109
0.192
0.36
0.52
0.631
0.767
0.694
0.296
-0.19
-0.729
-1.091
-1.128
-1.019
-0.843
-0.674
-0.412
-0.159
0.02
0.114
0.161
0.18
0.2
0.217
0.225
0.235
0.243
0.252
0.256
0.247
0.252
0.261
0.266
0.266
0.264
0.279
0.284
0.284
0.281
0.291
0.296
0.301
0.299
0.3
0.315
0.318
0.32
0.316
0.318
0.325
0.32
0.318
0.323
0.321
0.318
0.299
0.286
0.27
0.261
0.245
0.226
0.206
0.191
0.17
0.144
0.124
0.108
0.088
0.053
0.032
0.01
-0.011
-0.041
-0.059
-0.08
-0.108
-0.132
-0.153
-0.17
-0.186
-0.202
-0.22
-0.23
-0.229
-0.233
-0.24
-0.235
-0.234
-0.23
-0.221
-0.22
-0.215
-0.21
-0.202
-0.199
-0.188
-0.178
-0.172
-0.173
-0.158
-0.158
-0.146
-0.148
-0.144
-0.145
-0.14
-0.14
-0.133
-0.135
-0.135
-0.131
-0.133
-0.129
-0.132
-0.13
-0.133
-0.129
-0.127
-0.13
-0.129
-0.125
-0.126
-0.118
-0.114
-0.1
-0.072
-0.052
-0.037
-0.026
-0.024
-0.018
0.005
0.036
0.048
0.043
0.041
0.018
0.004
-0.015
-0.03
-0.054
-0.091
-0.107
-0.119
-0.127
-0.135
-0.14
-0.144
-0.14
-0.142
-0.14
-0.143
-0.14
-0.136
-0.13
-0.128
-0.123
-0.113
-0.109
-0.101
-0.088
-0.087
-0.09
-0.078
-0.038
0.091
0.175
0.356
0.51
0.608
0.747
0.603
0.152
-0.318
-0.857
-1.153
-1.17
-1.068
-0.901
-0.726
-0.458
-0.214
-0.014
0.081
0.141
0.165
0.185
0.204
0.217
0.22
0.224
0.234
0.241
0.246
0.241
0.25
0.249
0.253
0.249
0.256
0.26
0.264
0.268
0.266
0.279
0.283
0.285
0.289
0.297
0.301
0.303
0.305
0.312
0.318
0.319
0.314
0.318
0.318
0.307
0.292
0.286
0.275
0.259
0.246
0.228
0.204
0.187
0.169
0.148
0.126
0.098
0.08
0.057
0.036
0.011
-0.018
-0.043
-0.069
-0.085
-0.113
-0.131
-0.146
-0.16
-0.175
-0.192
-0.204
-0.208
-0.216
-0.213
-0.217
-0.215
-0.209
-0.205
-0.196
-0.188
-0.178
-0.175
-0.163
-0.156
-0.147
-0.143
-0.14
-0.13
-0.121
-0.117
-0.112
-0.108
-0.109
-0.104
-0.105
-0.101
-0.106
-0.105
-0.104
-0.104
-0.108
-0.102
-0.106
-0.098
-0.1
-0.099
-0.093
-0.091
-0.063
-0.042
-0.017
-0.009
-0.002
0.003
0.054
0.073
0.079
0.077
0.065
0.035
0.027
0.011
-0.011
-0.04
-0.07
-0.093
-0.109
-0.111
-0.119
-0.113
-0.112
-0.114
-0.119
-0.111
-0.112
-0.115
-0.113
-0.103
-0.102
-0.101
-0.09
-0.082
-0.079
-0.077
-0.075
-0.089
-0.077
-0.017
0.114
0.205
0.398
0.516
0.622
0.736
0.563
0.069
-0.424
-0.968
-1.212
-1.224
-1.082
-0.881
-0.663
-0.368
-0.11
0.039
0.121
0.166
0.194
0.214
0.228
0.236
0.237
0.249
0.261
0.266
0.268
0.268
0.277
0.281
0.287
0.287
0.296
0.295
0.305
0.308
0.31
0.32
0.321
0.321
0.328
0.33
0.329
0.338
0.339
0.35
0.351
0.352
0.346
0.347
0.335
0.332
0.317
0.307
0.293
0.278
0.256
0.24
0.226
0.202
0.184
0.159
0.138
0.112
0.093
0.07
0.047
0.019
-0.011
-0.032
-0.053
-0.067
-0.088
-0.117
-0.135
-0.149
-0.172
-0.183
-0.196
-0.198
-0.207
-0.21
-0.21
-0.204
-0.197
-0.19
-0.189
-0.187
-0.175
-0.176
-0.165
-0.157
-0.14
-0.137
-0.125
-0.126
-0.121
-0.117
-0.107
-0.107
-0.103
-0.103
-0.104
-0.103
-0.11
-0.099
-0.103
-0.103
-0.102
-0.105
-0.106
-0.101
-0.101
-0.097
-0.1
-0.097
-0.099
-0.097
-0.093
-0.088
-0.079
-0.065
-0.041
-0.016
0.006
0.017
0.025
0.027
0.072
0.092
0.098
0.103
0.093
0.064
0.052
0.03
0.011
-0.018
-0.052
-0.065
-0.085
-0.095
-0.101
-0.102
-0.107
-0.104
-0.111
-0.101
-0.105
-0.104
-0.106
-0.1
-0.094
-0.089
-0.08
-0.072
-0.069
-0.072
-0.066
-0.077
-0.071
-0.017
0.112
0.2
0.391
0.518
0.61
0.697
0.567
0.106
-0.406
-0.94
-1.231
-1.26
-1.105
-0.891
-0.656
-0.357
-0.105
0.04
0.109
0.152
0.18
0.199
0.214
0.225
0.234
0.238
0.252
0.25
0.258
0.253
0.266
0.268
0.273
0.268
0.283
0.29
0.29
0.297
0.304
0.312
0.317
0.32
0.331
0.343
0.348
0.351
0.348
0.362
0.36
0.36
0.362
0.362
0.356
0.344
0.34
0.325
0.311
0.295
0.277
0.254
0.246
0.22
0.202
0.176
0.157
0.134
0.111
0.082
0.068
0.04
0.014
-0.015
-0.038
-0.059
-0.082
-0.109
-0.132
-0.144
-0.163
-0.178
-0.195
-0.2
-0.206
-0.209
-0.205
-0.207
-0.204
-0.199
-0.196
-0.185
-0.175
-0.169
-0.167
-0.159
-0.149
-0.14
-0.136
-0.138
-0.136
-0.132
-0.128
-0.124
-0.119
-0.113
-0.115
-0.114
-0.115
-0.107
-0.114
-0.111
-0.112
-0.108
-0.114
-0.109
-0.106
-0.108
-0.118
-0.119
-0.122
-0.126
-0.122
-0.118
-0.116
-0.12
-0.11
-0.109
-0.105
-0.106
-0.098
-0.1
-0.1
-0.092
-0.09
-0.089
-0.096
-0.09
-0.091
-0.087
-0.089
-0.081
-0.079
-0.071
-0.072
-0.065
-0.061
-0.071
-0.063
-0.06
-0.056
-0.053
-0.051
-0.043
-0.025
-0.013
0.006
0.024
0.041
0.042
0.057
0.059
0.067
0.078
0.088
0.085
0.081
0.069
0.048
0.042
0.033
0.015
-0.003
-0.014
-0.025
-0.033
-0.041
-0.048
-0.054
-0.053
-0.052
-0.058
-0.049
-0.053
-0.051
-0.049
-0.047
-0.046
-0.042
-0.037
-0.032
-0.026
-0.037
-0.038
0.006
0.115
0.187
0.358
0.501
0.589
0.704
0.671
0.285
-0.24
-0.763
-1.142
-1.21
-1.084
-0.879
-0.659
-0.377
-0.119
0.037
0.123
0.174
0.205
0.221
0.234
0.245
0.249
0.257
0.269
0.275
0.269
0.276
0.283
0.279
0.28
0.287
0.288
0.295
0.296
0.297
0.3
0.309
0.312
0.306
0.312
0.316
0.319
0.314
0.317
0.325
0.322
0.317
0.316
0.313
0.318
0.307
0.292
0.279
0.264
0.252
0.231
0.215
0.199
0.183
0.153
0.137
0.121
0.105
0.082
0.057
0.03
0.013
-0.01
-0.036
-0.049
-0.078
-0.099
-0.126
-0.147
-0.167
-0.185
-0.211
-0.225
-0.236
-0.241
-0.256
-0.257
-0.253
-0.254
-0.246
-0.246
-0.234
-0.227
-0.219
-0.218
-0.206
-0.191
-0.186
-0.182
-0.173
-0.171
-0.159
-0.15
-0.15
-0.15
-0.144
-0.142
-0.138
-0.135
-0.135
-0.132
-0.134
-0.133
-0.138
-0.135
-0.138
-0.138
-0.131
-0.134
-0.134
-0.139
-0.137
-0.138
-0.135
-0.13
-0.121
-0.118
-0.12
-0.113
-0.107
-0.115
-0.109
-0.106
-0.104
-0.102
-0.096
-0.095
-0.092
-0.089
-0.083
-0.08
-0.08
-0.075
-0.07
-0.062
-0.064
-0.056
-0.057
-0.053
-0.051
-0.051
-0.052
-0.048
-0.042
-0.048
-0.041
-0.04
-0.032
-0.036
-0.032
-0.031
-0.029
-0.032
-0.029
-0.033
-0.031
-0.023
-0.02
-0.021
-0.022
-0.013
-0.011
-0.001
-0.006
-0.002
-0.008
-0.003
-0.004
0.002
0
-0.001
0
0.003
0.003
0.009
0.012
0.01
0.02
0.018
0.033
0.049
0.065
0.081
0.1
0.1
0.108
0.113
0.119
0.133
0.145
0.147
0.135
0.115
0.087
0.082
0.069
0.059
0.038
0.029
0.014
0.012
0.004
-0.002
-0.005
-0.003
-0.003
-0.001
0.005
0.002
0.003
0.006
0.014
0.014
0.017
0.016
0.017
0.014
0.014
0.013
0.055
0.166
0.241
0.42
0.552
0.665
0.745
0.687
0.274
-0.22
-0.747
-1.062
-1.103
-0.969
-0.78
-0.59
-0.33
-0.093
0.059
0.137
0.186
0.209
0.23
0.244
0.255
0.251
0.267
0.277
0.279
0.273
0.272
0.28
0.281
0.278
0.28
0.289
0.299
0.297
0.295
0.3
0.307
0.311
0.312
0.321
0.319
0.329
0.322
0.33
0.334
0.332
0.331
0.326
0.331
0.329
0.32
0.308
0.298
0.281
0.271
0.252
0.236
0.213
0.2
0.175
0.155
0.138
0.122
0.102
0.076
0.053
0.038
0.006
-0.017
-0.031
-0.054
-0.078
-0.111
-0.126
-0.151
-0.168
-0.191
-0.212
-0.223
-0.233
-0.244
-0.25
-0.248
-0.254
-0.249
-0.244
-0.238
-0.233
-0.224
-0.222
-0.214
-0.209
-0.197
-0.196
-0.194
-0.182
-0.178
-0.169
-0.168
-0.165
-0.168
-0.154
-0.155
-0.151
-0.148
-0.139
-0.137
-0.141
-0.141
-0.144
-0.147
-0.146
-0.141
-0.146
-0.142
-0.142
-0.139
-0.142
-0.14
-0.144
-0.141
-0.139
-0.128
-0.128
-0.127
-0.124
-0.119
-0.117
-0.119
-0.118
-0.114
-0.108
-0.107
-0.1
-0.1
-0.094
-0.099
-0.099
-0.1
-0.095
-0.094
-0.088
-0.084
-0.083
-0.084
-0.081
-0.073
-0.074
-0.067
-0.066
-0.068
-0.066
-0.059
-0.061
-0.057
-0.056
-0.051
-0.049
-0.046
-0.046
-0.045
-0.033
-0.038
-0.035
-0.033
-0.03
-0.036
-0.031
-0.023
-0.013
-0.009
0.003
0.02
0.037
0.047
0.061
0.064
0.063
0.087
0.1
0.1
0.093
0.093
0.062
0.055
0.039
0.028
0.003
-0.018
-0.018
-0.022
-0.021
-0.031
-0.032
-0.03
-0.027
-0.024
-0.022
-0.026
-0.03
-0.028
-0.017
-0.02
-0.011
-0.009
-0.006
-0.01
-0.013
0.018
0.107
0.213
0.339
0.513
0.614
0.746
0.756
0.491
-0.008
-0.502
-0.969
-1.09
-1.044
-0.898
-0.728
-0.522
-0.262
-0.06
0.082
0.153
0.199
0.222
0.237
0.246
0.252
0.259
0.265
0.275
0.277
0.277
0.28
0.288
0.285
0.287
0.294
0.301
0.302
0.303
0.3
0.311
0.316
0.317
0.317
0.322
0.329
0.331
0.333
0.337
0.343
0.344
0.34
0.339
0.343
0.333
0.329
0.319
0.315
0.302
0.284
0.267
0.242
0.222
0.194
0.174
0.155
0.137
0.107
0.085
0.059
0.046
0.009
-0.015
-0.041
-0.064
-0.089
-0.111
-0.134
-0.149
-0.164
-0.189
-0.209
-0.222
-0.232
-0.244
-0.239
-0.247
-0.244
-0.247
-0.241
-0.243
-0.231
-0.229
-0.216
-0.217
-0.207
-0.201
-0.195
-0.192
-0.183
-0.175
-0.175
-0.165
-0.155
-0.146
-0.145
-0.136
-0.127
-0.116
-0.113
-0.113
-0.109
-0.11
-0.109
-0.107
-0.103
-0.103
-0.102
-0.106
-0.101
-0.105
-0.1
-0.104
-0.105
-0.106
-0.112
-0.109
-0.104
-0.106
-0.107
-0.103
-0.107
-0.1
-0.103
-0.094
-0.1
-0.095
-0.099
-0.095
-0.097
-0.093
-0.09
-0.089
-0.085
-0.081
-0.075
-0.075
-0.07
-0.063
-0.056
-0.058
-0.055
-0.054
-0.051
-0.049
-0.048
-0.045
-0.043
-0.041
-0.039
-0.035
-0.031
-0.024
-0.017
0.006
0.029
0.054
0.058
0.067
0.062
0.081
0.101
0.107
0.104
0.096
0.067
0.044
0.047
0.029
0.005
-0.012
-0.014
-0.025
-0.025
-0.034
-0.038
-0.041
-0.04
-0.044
-0.041
-0.037
-0.034
-0.031
-0.027
-0.022
-0.028
-0.021
-0.024
-0.02
-0.03
0.008
0.097
0.226
0.346
0.518
0.604
0.686
0.724
0.49
-0.013
-0.506
-1.01
-1.185
-1.159
-1.019
-0.831
-0.617
-0.332
-0.106
0.057
0.138
0.187
0.212
0.231
0.244
0.244
0.255
0.263
0.268
0.275
0.281
0.28
0.287
0.282
0.276
0.281
0.293
0.297
0.298
0.3
0.308
0.314
0.31
0.321
0.323
0.335
0.335
0.337
0.34
0.343
0.344
0.347
0.346
0.352
0.351
0.346
0.339
0.327
0.322
0.299
0.283
0.266
0.247
0.216
0.198
0.175
0.147
0.114
0.097
0.065
0.031
0.009
-0.023
-0.049
-0.076
-0.1
-0.132
-0.152
-0.166
-0.185
-0.213
-0.226
-0.237
-0.244
-0.257
-0.263
-0.271
-0.27
-0.269
-0.274
-0.271
-0.269
-0.254
-0.251
-0.243
-0.241
-0.226
-0.223
-0.215
-0.213
-0.199
-0.193
-0.187
-0.188
-0.175
-0.164
-0.16
-0.159
-0.155
-0.147
-0.151
-0.145
-0.148
-0.138
-0.145
-0.142
-0.146
-0.141
-0.138
-0.141
-0.144
-0.14
-0.137
-0.137
-0.125
-0.126
-0.128
-0.135
-0.124
-0.124
-0.124
-0.12
-0.12
-0.118
-0.115
-0.113
-0.112
-0.107
-0.105
-0.102
-0.101
-0.095
-0.093
-0.093
-0.09
-0.087
-0.085
-0.081
-0.08
-0.079
-0.072
-0.067
-0.056
-0.041
-0.019
0.006
0.026
0.029
0.037
0.048
0.074
0.072
0.073
0.052
0.028
0.009
0.006
-0.018
-0.035
-0.056
-0.054
-0.062
-0.067
-0.073
-0.081
-0.082
-0.085
-0.085
-0.086
-0.085
-0.081
-0.074
-0.063
-0.062
-0.056
-0.048
-0.043
-0.041
-0.043
-0.048
0.007
0.137
0.227
0.405
0.547
0.61
0.707
0.639
0.245
-0.285
-0.794
-1.18
-1.25
-1.138
-0.928
-0.703
-0.419
-0.141
0.042
0.145
0.193
0.233
0.253
0.27
0.279
0.283
0.294
0.301
0.304
0.302
0.302
0.309
0.313
0.314
0.321
0.321
0.335
0.335
0.336
0.335
0.34
0.344
0.349
0.356
0.365
0.376
0.377
0.39
0.396
0.398
0.398
0.398
0.396
0.397
0.387
0.377
0.372
0.362
0.344
0.321
0.3
0.279
0.26
0.236
0.212
0.186
0.166
0.128
0.1
0.067
0.043
0.007
-0.025
-0.053
-0.074
-0.102
-0.13
-0.153
-0.171
-0.188
-0.207
-0.223
-0.236
-0.239
-0.251
-0.255
-0.259
-0.251
-0.252
-0.252
-0.239
-0.234
-0.224
-0.217
-0.205
-0.193
-0.177
-0.173
-0.164
-0.155
-0.141
-0.138
-0.135
-0.126
-0.12
-0.12
-0.123
-0.116
-0.117
-0.108
-0.108
-0.106
-0.103
-0.099
-0.102
-0.096
-0.101
-0.097
-0.1
-0.096
-0.097
-0.093
-0.097
-0.092
-0.091
-0.092
-0.085
-0.086
-0.087
-0.089
-0.088
-0.092
-0.082
-0.082
-0.079
-0.08
-0.076
-0.069
-0.067
-0.071
-0.07
-0.062
-0.062
-0.06
-0.058
-0.054
-0.053
-0.05
-0.049
-0.048
-0.048
-0.042
-0.043
-0.042
-0.03
-0.028
-0.023
-0.02
-0.018
-0.018
-0.012
-0.013
-0.01
-0.008
0.001
0.005
0.023
0.048
0.069
0.082
0.089
0.096
0.106
0.128
0.135
0.132
0.117
0.094
0.07
0.065
0.045
0.029
0.011
0.001
-0.005
-0.01
-0.014
-0.021
-0.025
-0.028
-0.027
-0.023
-0.022
-0.026
-0.018
-0.014
-0.007
-0.006
0.003
0.001
0.003
-0.001
-0.001
0.04
0.151
0.235
0.405
0.561
0.648
0.742
0.701
0.36
-0.186
-0.682
-1.101
-1.198
-1.112
-0.902
-0.69
-0.407
-0.142
0.047
0.139
0.186
0.223
0.239
0.254
0.255
0.258
0.264
0.274
0.273
0.277
0.276
0.288
0.297
0.294
0.299
0.308
0.313
0.31
0.312
0.322
0.336
0.335
0.341
0.345
0.351
0.353
0.355
0.356
0.362
0.365
0.359
0.358
0.361
0.369
0.358
0.351
0.343
0.329
0.309
0.29
0.269
0.253
0.231
0.208
0.185
0.165
0.143
0.115
0.09
0.063
0.039
0.006
-0.02
-0.052
-0.078
-0.103
-0.133
-0.159
-0.181
-0.203
-0.221
-0.239
-0.252
-0.26
-0.27
-0.267
-0.27
-0.265
-0.265
-0.255
-0.254
-0.247
-0.244
-0.233
-0.23
-0.222
-0.21
-0.201
-0.201
-0.192
-0.182
-0.178
-0.17
-0.165
-0.158
-0.155
-0.153
-0.144
-0.137
-0.133
-0.128
-0.127
-0.128
-0.121
-0.12
-0.118
-0.118
-0.116
-0.119
-0.119
-0.119
-0.113
-0.113
-0.116
-0.124
-0.116
-0.115
-0.114
-0.112
-0.114
-0.11
-0.109
-0.105
-0.103
-0.089
-0.095
-0.089
-0.085
-0.081
-0.084
-0.08
-0.077
-0.075
-0.07
-0.071
-0.07
-0.064
-0.061
-0.062
-0.053
-0.044
-0.039
-0.044
-0.045
-0.045
-0.045
-0.04
-0.037
-0.041
-0.036
-0.03
-0.026
-0.024
-0.025
-0.02
-0.018
-0.014
-0.014
-0.015
-0.015
-0.003
-0.003
-0.001
-0.001
-0.001
-0.003
0
0.004
0.007
0.013
0.021
0.029
0.047
0.072
0.084
0.095
0.092
0.103
0.114
0.13
0.128
0.12
0.11
0.079
0.07
0.063
0.042
0.018
0.013
0.003
0.003
-0.005
-0.013
-0.025
-0.026
-0.023
-0.024
-0.022
-0.025
-0.025
-0.021
-0.016
-0.014
-0.006
-0.003
-0.003
-0.004
-0.011
0.002
0.076
0.176
0.294
0.457
0.587
0.698
0.746
0.582
0.07
-0.423
-0.926
-1.139
-1.134
-0.956
-0.766
-0.526
-0.264
-0.041
0.087
0.157
0.186
0.206
0.226
0.235
0.24
0.242
0.252
0.257
0.259
0.26
0.268
0.27
0.272
0.267
0.274
0.288
0.288
0.285
0.292
0.297
0.302
0.304
0.3
0.31
0.31
0.32
0.314
0.32
0.323
0.325
0.321
0.318
0.322
0.32
0.311
0.299
0.292
0.283
0.266
0.246
0.234
0.212
0.197
0.168
0.148
0.126
0.106
0.075
0.05
0.025
0.001
-0.03
-0.058
-0.08
-0.105
-0.125
-0.151
-0.176
-0.195
-0.209
-0.229
-0.245
-0.252
-0.259
-0.271
-0.279
-0.271
-0.274
-0.282
-0.274
-0.267
-0.266
-0.256
-0.252
-0.245
-0.238
-0.225
-0.221
-0.212
-0.2
-0.195
-0.185
-0.182
-0.173
-0.169
-0.167
-0.165
-0.156
-0.154
-0.145
-0.149
-0.148
-0.149
-0.146
-0.15
-0.147
-0.145
-0.142
-0.147
-0.148
-0.145
-0.147
-0.143
-0.144
-0.136
-0.136
-0.13
-0.125
-0.121
-0.125
-0.117
-0.115
-0.112
-0.109
-0.108
-0.106
-0.104
-0.097
-0.095
-0.088
-0.09
-0.084
-0.084
-0.078
-0.08
-0.077
-0.078
-0.075
-0.077
-0.073
-0.066
-0.067
-0.059
-0.055
-0.051
-0.052
-0.047
-0.044
-0.04
-0.044
-0.031
-0.033
-0.026
-0.024
-0.02
-0.02
-0.016
-0.012
-0.012
-0.005
-0.002
-0.001
-0.007
0.004
0.004
0.007
0.008
0.014
0.011
0.011
0.011
0.016
0.012
0.016
0.017
0.018
0.02
0.023
0.026
0.023
0.044
0.057
0.077
0.09
0.097
0.102
0.123
0.137
0.14
0.139
0.13
0.102
0.086
0.083
0.061
0.048
0.027
0.021
0.012
0.006
-0.002
-0.009
-0.017
-0.019
-0.019
-0.014
-0.011
-0.014
-0.007
-0.007
0
0
0.007
0.006
0.006
-0.004
0.008
0.074
0.172
0.284
0.449
0.571
0.688
0.741
0.578
0.074
-0.423
-0.916
-1.126
-1.11
-0.933
-0.746
-0.519
-0.258
-0.035
0.084
0.141
0.174
0.198
0.217
0.236
0.238
0.242
0.245
0.256
0.256
0.258
0.259
0.265
0.262
0.259
0.256
0.264
0.274
0.271
0.276
0.283
0.293
0.294
0.299
0.302
0.313
0.315
0.319
0.324
0.333
0.337
0.332
0.338
0.345
0.339
0.33
0.321
0.314
0.307
0.287
0.271
0.25
0.237
0.213
0.195
0.173
0.155
0.126
0.108
0.088
0.064
0.042
0.006
-0.021
-0.049
-0.069
-0.1
-0.127
-0.153
-0.174
-0.199
-0.215
-0.229
-0.242
-0.253
-0.263
-0.265
-0.268
-0.269
-0.267
-0.266
-0.263
-0.256
-0.25
-0.234
-0.228
-0.215
-0.206
-0.202
-0.197
-0.19
-0.182
-0.178
-0.164
-0.155
-0.158
-0.153
-0.149
-0.145
-0.137
-0.138
-0.137
-0.137
-0.134
-0.137
-0.138
-0.132
-0.13
-0.132
-0.14
-0.137
-0.14
-0.134
-0.134
-0.131
-0.136
-0.13
-0.128
-0.125
-0.124
-0.119
-0.117
-0.119
-0.114
-0.112
-0.11
-0.107
-0.102
-0.101
-0.099
-0.099
-0.087
-0.089
-0.081
-0.081
-0.075
-0.068
-0.06
-0.059
-0.057
-0.054
-0.052
-0.051
-0.048
-0.044
-0.05
-0.036
-0.043
-0.034
-0.038
-0.037
-0.032
-0.027
-0.025
-0.024
-0.026
-0.021
-0.014
-0.02
-0.012
-0.016
-0.019
-0.018
-0.004
-0.002
0.008
0.012
0.03
0.047
0.066
0.081
0.083
0.096
0.118
0.138
0.137
0.138
0.125
0.093
0.081
0.073
0.051
0.032
0.017
0.014
0.009
0.003
-0.006
-0.01
-0.009
-0.012
-0.011
-0.011
-0.006
-0.004
0.005
0.002
0.014
0.017
0.021
0.02
0.007
0.005
0.029
0.118
0.216
0.352
0.529
0.638
0.768
0.778
0.516
0.027
-0.471
-0.937
-1.057
-1.005
-0.859
-0.692
-0.5
-0.245
-0.035
0.095
0.165
0.196
0.213
0.227
0.242
0.247
0.258
0.263
0.274
0.269
0.27
0.276
0.278
0.282
0.274
0.28
0.288
0.288
0.288
0.291
0.287
0.3
0.292
0.299
0.308
0.31
0.309
0.31
0.322
0.325
0.328
0.324
0.326
0.334
0.33
0.316
0.311
0.299
0.289
0.268
0.257
0.238
0.22
0.198
0.175
0.15
0.126
0.107
0.087
0.064
0.033
0.011
-0.022
-0.045
-0.077
-0.102
-0.132
-0.158
-0.176
-0.199
-0.219
-0.233
-0.236
-0.245
-0.255
-0.264
-0.265
-0.27
-0.266
-0.276
-0.269
-0.264
-0.254
-0.249
-0.236
-0.229
-0.222
-0.213
-0.21
-0.2
-0.195
-0.181
-0.174
-0.163
-0.165
-0.158
-0.155
-0.149
-0.144
-0.139
-0.136
-0.142
-0.139
-0.134
-0.134
-0.138
-0.128
-0.127
-0.123
-0.129
-0.131
-0.13
-0.127
-0.134
-0.125
-0.119
-0.121
-0.12
-0.119
-0.11
-0.112
-0.105
-0.107
-0.107
-0.11
-0.1
-0.1
-0.098
-0.101
-0.097
-0.09
-0.086
-0.087
-0.085
-0.082
-0.08
-0.078
-0.076
-0.069
-0.066
-0.059
-0.051
-0.043
-0.031
-0.002
0.012
0.032
0.039
0.038
0.057
0.081
0.093
0.091
0.082
0.051
0.035
0.026
0.007
-0.014
-0.033
-0.039
-0.042
-0.05
-0.055
-0.064
-0.066
-0.064
-0.066
-0.062
-0.062
-0.06
-0.058
-0.048
-0.049
-0.046
-0.044
-0.036
-0.032
-0.031
-0.041
-0.008
0.083
0.201
0.338
0.52
0.6
0.717
0.726
0.434
-0.063
-0.57
-1.037
-1.164
-1.118
-0.979
-0.793
-0.588
-0.311
-0.092
0.054
0.125
0.172
0.196
0.215
0.226
0.231
0.249
0.251
0.262
0.257
0.26
0.265
0.278
0.276
0.276
0.286
0.288
0.292
0.288
0.298
0.304
0.306
0.305
0.311
0.319
0.326
0.322
0.327
0.336
0.339
0.344
0.351
0.351
0.353
0.349
0.343
0.336
0.323
0.315
0.296
0.281
0.262
0.245
0.224
0.196
0.174
0.152
0.126
0.099
0.07
0.043
0.015
-0.022
-0.042
-0.07
-0.091
-0.121
-0.145
-0.156
-0.174
-0.191
-0.206
-0.217
-0.229
-0.235
-0.24
-0.243
-0.249
-0.242
-0.241
-0.23
-0.231
-0.227
-0.225
-0.216
-0.213
-0.198
-0.193
-0.184
-0.182
-0.177
-0.167
-0.164
-0.159
-0.152
-0.142
-0.136
-0.132
-0.13
-0.121
-0.119
-0.112
-0.113
-0.113
-0.111
-0.112
-0.112
-0.107
-0.102
-0.105
-0.102
-0.104
-0.1
-0.105
-0.107
-0.101
-0.096
-0.093
-0.092
-0.093
-0.087
-0.08
-0.077
-0.08
-0.083
-0.078
-0.086
-0.075
-0.076
-0.072
-0.079
-0.074
-0.073
-0.057
-0.053
-0.045
-0.017
0.007
0.027
0.039
0.036
0.045
0.07
0.077
0.088
0.079
0.061
0.035
0.025
0.007
-0.01
-0.029
-0.036
-0.049
-0.058
-0.064
-0.072
-0.08
-0.08
-0.072
-0.067
-0.063
-0.072
-0.068
-0.064
-0.056
-0.053
-0.047
-0.044
-0.036
-0.034
-0.034
-0.027
0.025
0.16
0.245
0.431
0.567
0.648
0.746
0.648
0.207
-0.301
-0.829
-1.176
-1.223
-1.11
-0.906
-0.695
-0.403
-0.139
0.049
0.135
0.192
0.22
0.245
0.256
0.268
0.273
0.282
0.288
0.287
0.292
0.294
0.303
0.303
0.308
0.304
0.315
0.314
0.313
0.315
0.326
0.321
0.328
0.33
0.339
0.347
0.351
0.355
0.36
0.366
0.378
0.376
0.373
0.38
0.372
0.367
0.357
0.357
0.34
0.323
0.305
0.291
0.27
0.246
0.22
0.195
0.177
0.149
0.117
0.084
0.061
0.026
-0.008
-0.038
-0.063
-0.093
-0.117
-0.139
-0.165
-0.18
-0.196
-0.213
-0.232
-0.24
-0.245
-0.251
-0.258
-0.257
-0.255
-0.252
-0.248
-0.239
-0.235
-0.233
-0.227
-0.217
-0.203
-0.199
-0.186
-0.185
-0.172
-0.165
-0.155
-0.154
-0.147
-0.14
-0.134
-0.128
-0.12
-0.115
-0.115
-0.108
-0.108
-0.103
-0.106
-0.105
-0.107
-0.101
-0.105
-0.101
-0.106
-0.104
-0.104
-0.102
-0.101
-0.1
-0.103
-0.098
-0.095
-0.096
-0.099
-0.099
-0.091
-0.092
-0.084
-0.086
-0.083
-0.086
-0.084
-0.083
-0.08
-0.074
-0.073
-0.069
-0.07
-0.062
-0.06
-0.059
-0.052
-0.042
-0.036
-0.005
0.018
0.036
0.047
0.044
0.045
0.066
0.083
0.086
0.074
0.06
0.04
0.031
0.017
-0.002
-0.022
-0.039
-0.041
-0.05
-0.05
-0.062
-0.066
-0.071
-0.073
-0.067
-0.07
-0.068
-0.061
-0.053
-0.053
-0.044
-0.04
-0.032
-0.035
-0.028
-0.03
-0.036
0.001
0.1
0.189
0.349
0.517
0.607
0.716
0.711
0.422
-0.128
-0.626
-1.089
-1.211
-1.144
-0.931
-0.727
-0.448
-0.175
0.027
0.126
0.182
0.211
0.233
0.252
0.258
0.263
0.269
0.288
0.289
0.286
0.291
0.297
0.305
0.308
0.313
0.322
0.323
0.326
0.331
0.333
0.346
0.347
0.347
0.349
0.362
0.364
0.365
0.368
0.375
0.378
0.381
0.379
0.38
0.379
0.371
0.362
0.345
0.336
0.32
0.303
0.284
0.265
0.24
0.218
0.187
0.169
0.145
0.119
0.092
0.058
0.04
0.008
-0.025
-0.056
-0.083
-0.115
-0.14
-0.166
-0.19
-0.206
-0.226
-0.243
-0.249
-0.263
-0.27
-0.275
-0.279
-0.269
-0.272
-0.266
-0.263
-0.251
-0.253
-0.245
-0.238
-0.228
-0.223
-0.217
-0.208
-0.2
-0.192
-0.186
-0.175
-0.169
-0.161
-0.15
-0.142
-0.137
-0.131
-0.132
-0.127
-0.125
-0.117
-0.117
-0.121
-0.123
-0.119
-0.11
-0.115
-0.111
-0.119
-0.109
-0.11
-0.107
-0.109
-0.101
-0.099
-0.1
-0.1
-0.096
-0.095
-0.096
-0.098
-0.098
-0.099
-0.093
-0.095
-0.095
-0.087
-0.092
-0.085
-0.084
-0.078
-0.076
-0.078
-0.072
-0.071
-0.07
-0.068
-0.06
-0.057
-0.057
-0.056
-0.056
-0.057
-0.048
-0.044
-0.039
-0.043
-0.042
-0.039
-0.032
-0.023
-0.013
0.011
0.033
0.049
0.058
0.058
0.061
0.079
0.095
0.094
0.088
0.076
0.051
0.044
0.032
0.016
-0.008
-0.018
-0.021
-0.029
-0.038
-0.047
-0.047
-0.049
-0.045
-0.046
-0.044
-0.043
-0.038
-0.035
-0.033
-0.029
-0.019
-0.012
-0.013
-0.008
-0.011
-0.013
0.017
0.107
0.193
0.341
0.504
0.607
0.712
0.734
0.477
-0.052
-0.552
-1.016
-1.164
-1.107
-0.9
-0.703
-0.429
-0.166
0.036
0.128
0.178
0.205
0.224
0.242
0.253
0.261
0.265
0.278
0.284
0.285
0.282
0.294
0.299
0.294
0.292
0.299
0.298
0.305
0.303
0.311
0.319
0.318
0.322
0.318
0.326
0.33
0.338
0.335
0.343
0.349
0.353
0.346
0.348
0.347
0.341
0.331
0.319
0.301
0.289
0.276
0.254
0.242
0.224
0.198
0.172
0.152
0.136
0.109
0.077
0.051
0.029
0
-0.031
-0.058
-0.081
-0.114
-0.138
-0.162
-0.181
-0.204
-0.221
-0.241
-0.252
-0.264
-0.265
-0.274
-0.275
-0.272
-0.272
-0.267
-0.262
-0.252
-0.243
-0.231
-0.231
-0.217
-0.209
-0.195
-0.195
-0.185
-0.178
-0.176
-0.173
-0.16
-0.158
-0.15
-0.14
-0.141
-0.138
-0.135
-0.128
-0.13
-0.12
-0.12
-0.123
-0.123
-0.114
-0.118
-0.12
-0.118
-0.124
-0.12
-0.121
-0.118
-0.128
-0.126
-0.129
-0.125
-0.126
-0.12
-0.122
-0.116
-0.114
-0.111
-0.112
-0.113
-0.104
-0.106
-0.104
-0.103
-0.099
-0.099
-0.091
-0.093
-0.09
-0.09
-0.086
-0.085
-0.085
-0.083
-0.086
-0.081
-0.075
-0.072
-0.066
-0.062
-0.06
-0.05
-0.055
-0.054
-0.045
-0.044
-0.045
-0.04
-0.041
-0.033
-0.031
-0.031
-0.032
-0.027
-0.019
-0.017
-0.015
-0.013
-0.003
-0.006
0
0.002
0.007
0.01
0.014
0.017
0.025
0.043
0.062
0.076
0.084
0.093
0.101
0.123
0.134
0.135
0.127
0.12
0.085
0.08
0.065
0.046
0.022
0.015
0.01
0.002
-0.002
-0.009
-0.008
-0.011
-0.006
-0.008
-0.012
-0.015
-0.008
-0.011
-0.003
-0.001
0.01
0.018
0.02
0.018
0.014
0.006
0.034
0.122
0.212
0.343
0.504
0.615
0.729
0.762
0.539
0.022
-0.467
-0.937
-1.092
-1.05
-0.859
-0.682
-0.446
-0.19
0.013
0.117
0.176
0.206
0.226
0.239
0.257
0.249
0.257
0.267
0.271
0.268
0.267
0.273
0.275
0.281
0.279
0.284
0.289
0.293
0.293
0.296
0.302
0.308
0.304
0.313
0.325
0.329
0.323
0.33
0.339
0.342
0.339
0.336
0.342
0.341
0.341
0.327
0.321
0.311
0.296
0.274
0.256
0.238
0.222
0.203
0.176
0.161
0.135
0.117
0.084
0.06
0.031
0.006
-0.021
-0.049
-0.076
-0.103
-0.133
-0.156
-0.177
-0.203
-0.216
-0.232
-0.24
-0.253
-0.256
-0.276
-0.276
-0.281
-0.28
-0.28
-0.276
-0.268
-0.264
-0.258
-0.249
-0.238
-0.233
-0.218
-0.211
-0.201
-0.195
-0.19
-0.183
-0.17
-0.164
-0.158
-0.158
-0.149
-0.144
-0.142
-0.142
-0.143
-0.136
-0.136
-0.128
-0.129
-0.13
-0.132
-0.124
-0.123
-0.125
-0.126
-0.125
-0.125
-0.125
-0.123
-0.123
-0.122
-0.119
-0.117
-0.111
-0.104
-0.106
-0.105
-0.103
-0.097
-0.106
-0.099
-0.092
-0.092
-0.091
-0.094
-0.088
-0.082
-0.079
-0.077
-0.073
-0.077
-0.067
-0.063
-0.064
-0.061
-0.053
-0.047
-0.047
-0.045
-0.043
-0.041
-0.042
-0.034
-0.03
-0.023
-0.015
-0.007
-0.002
0.017
0.034
0.057
0.072
0.071
0.076
0.099
0.12
0.126
0.128
0.114
0.082
0.068
0.061
0.046
0.03
0.01
0.014
0.01
0.002
-0.01
-0.015
-0.019
-0.021
-0.017
-0.017
-0.01
-0.012
-0.015
-0.011
-0.005
-0.004
0.001
-0.003
0.003
-0.001
-0.002
0.035
0.138
0.239
0.384
0.555
0.643
0.77
0.749
0.427
-0.064
-0.566
-1
-1.099
-1.039
-0.882
-0.719
-0.496
-0.236
-0.031
0.097
0.164
0.206
0.221
0.241
0.247
0.251
0.251
0.271
0.271
0.27
0.263
0.27
0.268
0.274
0.277
0.28
0.287
0.285
0.281
0.282
0.295
0.299
0.301
0.299
0.313
0.326
0.326
0.337
0.337
0.337
0.341
0.346
0.345
0.349
0.344
0.339
0.323
0.318
0.302
0.284
0.264
0.249
0.226
0.209
0.181
0.159
0.136
0.113
0.086
0.054
0.022
-0.008
-0.036
-0.069
-0.092
-0.12
-0.14
-0.168
-0.185
-0.209
-0.223
-0.239
-0.247
-0.26
-0.265
-0.27
-0.274
-0.272
-0.269
-0.273
-0.273
-0.261
-0.256
-0.254
-0.251
-0.241
-0.233
-0.222
-0.209
-0.2
-0.19
-0.181
-0.172
-0.166
-0.153
-0.143
-0.142
-0.139
-0.127
-0.124
-0.119
-0.121
-0.116
-0.111
-0.109
-0.108
-0.108
-0.105
-0.106
-0.104
-0.109
-0.105
-0.099
-0.103
-0.106
-0.103
-0.098
-0.102
-0.106
-0.098
-0.096
-0.1
-0.089
-0.091
-0.086
-0.083
-0.079
-0.08
-0.075
-0.075
-0.064
-0.064
-0.053
-0.04
-0.041
-0.02
0.011
0.026
0.048
0.05
0.053
0.072
0.092
0.1
0.087
0.08
0.049
0.04
0.035
0.016
-0.006
-0.023
-0.026
-0.032
-0.036
-0.045
-0.049
-0.055
-0.048
-0.045
-0.044
-0.049
-0.045
-0.05
-0.048
-0.044
-0.033
-0.036
-0.035
-0.03
-0.021
-0.032
-0.009
0.068
0.193
0.301
0.485
0.591
0.696
0.767
0.551
0.05
-0.437
-0.967
-1.169
-1.159
-1.011
-0.825
-0.611
-0.323
-0.082
0.064
0.14
0.187
0.217
0.229
0.239
0.242
0.253
0.26
0.263
0.267
0.266
0.273
0.277
0.28
0.278
0.287
0.281
0.286
0.286
0.294
0.294
0.298
0.296
0.3
0.313
0.318
0.319
0.321
0.331
0.333
0.343
0.346
0.346
0.339
0.342
0.33
0.32
0.307
0.296
0.276
0.252
0.232
0.209
0.187
0.157
0.138
0.11
0.082
0.053
0.027
-0.006
-0.034
-0.075
-0.111
-0.134
-0.161
-0.189
-0.206
-0.222
-0.235
-0.247
-0.264
-0.276
-0.286
-0.293
-0.305
-0.306
-0.31
-0.304
-0.307
-0.309
-0.304
-0.297
-0.287
-0.28
-0.266
-0.262
-0.25
-0.238
-0.226
-0.217
-0.201
-0.203
-0.189
-0.18
-0.172
-0.166
-0.159
-0.154
-0.147
-0.14
-0.143
-0.137
-0.129
-0.127
-0.128
-0.118
-0.126
-0.124
-0.13
-0.126
-0.124
-0.12
-0.12
-0.12
-0.119
-0.117
-0.115
-0.113
-0.107
-0.107
-0.106
-0.11
-0.103
-0.105
-0.097
-0.1
-0.1
-0.099
-0.09
-0.088
-0.09
-0.082
-0.085
-0.086
-0.077
-0.075
-0.077
-0.072
-0.066
-0.058
-0.055
-0.042
-0.045
-0.033
-0.013
0.009
0.032
0.052
0.057
0.061
0.068
0.089
0.103
0.093
0.084
0.056
0.042
0.036
0.013
-0.006
-0.018
-0.026
-0.028
-0.036
-0.046
-0.048
-0.05
-0.047
-0.045
-0.04
-0.036
-0.032
-0.028
-0.024
-0.021
-0.009
-0.002
0.005
0.009
0.009
0.005
0.007
0.069
0.194
0.285
0.472
0.602
0.686
0.769
0.678
0.245
-0.269
-0.792
-1.121
-1.17
-1.026
-0.819
-0.598
-0.32
-0.058
0.098
0.182
0.225
0.253
0.267
0.282
0.287
0.289
0.297
0.302
0.302
0.306
0.31
0.311
0.319
0.321
0.326
0.326
0.338
0.335
0.338
0.339
0.345
0.344
0.349
0.356
0.361
0.365
0.364
0.371
0.376
0.387
0.387
0.387
0.385
0.387
0.384
0.375
0.368
0.359
0.343
0.319
0.303
0.283
0.267
0.24
0.216
0.187
0.164
0.132
0.103
0.07
0.043
0.01
-0.019
-0.05
-0.077
-0.108
-0.137
-0.154
-0.179
-0.195
-0.217
-0.234
-0.241
-0.248
-0.258
-0.259
-0.261
-0.256
-0.261
-0.26
-0.254
-0.244
-0.234
-0.228
-0.218
-0.209
-0.196
-0.189
-0.176
-0.174
-0.162
-0.159
-0.153
-0.146
-0.13
-0.127
-0.125
-0.12
-0.11
-0.107
-0.1
-0.096
-0.098
-0.093
-0.091
-0.092
-0.092
-0.087
-0.085
-0.082
-0.083
-0.081
-0.082
-0.088
-0.086
-0.091
-0.083
-0.081
-0.083
-0.084
-0.078
-0.081
-0.077
-0.076
-0.07
-0.073
-0.07
-0.068
-0.068
-0.063
-0.065
-0.056
-0.061
-0.055
-0.054
-0.054
-0.052
-0.052
-0.054
-0.043
-0.043
-0.036
-0.034
-0.033
-0.033
-0.03
-0.025
-0.024
-0.018
-0.026
-0.021
-0.014
-0.013
-0.016
-0.011
-0.011
-0.008
-0.005
-0.003
-0.01
-0.006
0
0.005
0.013
0.014
0.026
0.046
0.073
0.085
0.099
0.096
0.109
0.12
0.141
0.138
0.131
0.111
0.081
0.076
0.059
0.046
0.023
0.018
0.005
-0.003
-0.007
-0.012
-0.014
-0.016
-0.02
-0.021
-0.024
-0.027
-0.02
-0.018
-0.014
-0.014
-0.006
-0.005
0.005
0.003
0.011
-0.004
0.019
0.097
0.198
0.315
0.477
0.59
0.697
0.743
0.561
0.05
-0.448
-0.932
-1.144
-1.132
-0.943
-0.742
-0.495
-0.232
-0.02
0.101
0.161
0.195
0.214
0.228
0.242
0.243
0.253
0.259
0.268
0.267
0.272
0.27
0.279
0.277
0.282
0.283
0.289
0.291
0.291
0.299
0.302
0.307
0.302
0.307
0.314
0.325
0.322
0.326
0.323
0.332
0.327
0.328
0.33
0.331
0.323
0.317
0.31
0.294
0.289
0.267
0.25
0.231
0.214
0.188
0.165
0.135
0.118
0.093
0.064
0.036
0.007
-0.019
-0.061
-0.091
-0.118
-0.142
-0.171
-0.195
-0.216
-0.233
-0.254
-0.271
-0.284
-0.292
-0.3
-0.305
-0.311
-0.309
-0.31
-0.313
-0.306
-0.304
-0.286
-0.282
-0.273
-0.266
-0.255
-0.249
-0.243
-0.238
-0.23
-0.226
-0.217
-0.211
-0.206
-0.195
-0.191
-0.185
-0.184
-0.178
-0.173
-0.163
-0.165
-0.154
-0.152
-0.151
-0.15
-0.147
-0.146
-0.147
-0.143
-0.144
-0.138
-0.139
-0.141
-0.136
-0.129
-0.135
-0.129
-0.134
-0.132
-0.131
-0.13
-0.123
-0.129
-0.123
-0.119
-0.117
-0.111
-0.111
-0.107
-0.105
-0.106
-0.098
-0.098
-0.087
-0.085
-0.082
-0.079
-0.075
-0.07
-0.072
-0.067
-0.065
-0.058
-0.052
-0.05
-0.045
-0.035
-0.042
-0.037
-0.041
-0.04
-0.036
-0.034
-0.027
-0.027
-0.024
-0.018
-0.013
-0.014
-0.004
-0.011
-0.002
-0.002
0.002
0
0.006
0.005
0.009
0.015
0.013
0.007
0.005
0.018
0.025
0.02
0.027
0.032
0.032
0.05
0.07
0.086
0.096
0.105
0.102
0.117
0.134
0.144
0.145
0.13
0.105
0.081
0.084
0.063
0.044
0.024
0.024
0.016
0.011
0.002
-0.002
-0.003
-0.008
0.002
-0.003
-0.006
-0.003
0.004
0.004
0.007
0.009
0.019
0.01
0.016
0.013
0.016
0.014
0.054
0.158
0.235
0.407
0.546
0.644
0.742
0.732
0.408
-0.115
-0.612
-1.008
-1.112
-1.017
-0.81
-0.603
-0.329
-0.083
0.087
0.172
0.218
0.236
0.251
0.259
0.272
0.274
0.281
0.285
0.289
0.285
0.293
0.291
0.298
0.299
0.302
0.308
0.311
0.312
0.308
0.313
0.32
0.319
0.322
0.331
0.336
0.342
0.344
0.344
0.348
0.355
0.361
0.358
0.362
0.361
0.359
0.343
0.337
0.319
0.312
0.284
0.268
0.248
0.234
0.208
0.184
0.161
0.144
0.117
0.082
0.057
0.03
0.002
-0.036
-0.06
-0.093
-0.12
-0.156
-0.177
-0.201
-0.212
-0.233
-0.248
-0.259
-0.27
-0.277
-0.286
-0.284
-0.283
-0.282
-0.29
-0.282
-0.281
-0.274
-0.268
-0.266
-0.262
-0.25
-0.244
-0.236
-0.226
-0.219
-0.207
-0.202
-0.187
-0.185
-0.174
-0.169
-0.162
-0.154
-0.147
-0.147
-0.147
-0.14
-0.14
-0.137
-0.135
-0.124
-0.124
-0.119
-0.122
-0.119
-0.122
-0.113
-0.12
-0.113
-0.111
-0.11
-0.112
-0.107
-0.102
-0.104
-0.101
-0.103
-0.099
-0.098
-0.095
-0.091
-0.089
-0.088
-0.084
-0.081
-0.079
-0.08
-0.076
-0.078
-0.075
-0.074
-0.064
-0.063
-0.065
-0.06
-0.061
-0.053
-0.051
-0.045
-0.047
-0.047
-0.047
-0.042
-0.042
-0.042
-0.041
-0.035
-0.033
-0.033
-0.03
-0.025
-0.026
-0.017
-0.014
-0.014
-0.006
-0.01
-0.006
-0.008
-0.007
-0.001
0.001
0.003
0.003
0.007
0.007
0.008
0.007
0.008
0.009
0.011
0.015
0.017
0.01
0.018
0.018
0.021
0.025
0.031
0.036
0.037
0.055
0.07
0.088
0.094
0.1
0.101
0.123
0.136
0.138
0.131
0.12
0.097
0.085
0.072
0.053
0.034
0.023
0.016
0.008
0.005
-0.009
-0.015
-0.019
-0.019
-0.021
-0.021
-0.023
-0.022
-0.016
-0.012
-0.01
-0.01
-0.005
-0.008
0.002
-0.004
-0.013
0.013
0.098
0.183
0.312
0.478
0.594
0.708
0.737
0.534
0.016
-0.47
-0.934
-1.094
-1.058
-0.866
-0.69
-0.466
-0.214
-0.002
0.106
0.161
0.195
0.216
0.233
0.242
0.25
0.252
0.267
0.274
0.276
0.267
0.285
0.283
0.288
0.29
0.298
0.298
0.3
0.307
0.31
0.316
0.318
0.323
0.325
0.331
0.337
0.337
0.33
0.342
0.34
0.345
0.34
0.338
0.343
0.34
0.333
0.321
0.318
0.297
0.288
0.263
0.249
0.226
0.204
0.179
0.162
0.139
0.115
0.086
0.058
0.028
0
-0.026
-0.064
-0.093
-0.124
-0.154
-0.185
-0.201
-0.221
-0.238
-0.257
-0.263
-0.277
-0.286
-0.295
-0.302
-0.305
-0.308
-0.302
-0.301
-0.291
-0.285
-0.279
-0.275
-0.269
-0.261
-0.24
-0.234
-0.228
-0.219
-0.212
-0.207
-0.204
-0.195
-0.187
-0.175
-0.172
-0.162
-0.161
-0.156
-0.151
-0.14
-0.139
-0.136
-0.137
-0.131
-0.132
-0.125
-0.118
-0.115
-0.115
-0.119
-0.123
-0.125
-0.113
-0.115
-0.113
-0.119
-0.115
-0.111
-0.11
-0.104
-0.098
-0.094
-0.094
-0.087
-0.086
-0.082
-0.088
-0.081
-0.075
-0.072
-0.068
-0.063
-0.061
-0.053
-0.054
-0.052
-0.046
-0.037
-0.033
-0.038
-0.037
-0.035
-0.033
-0.03
-0.02
-0.025
-0.018
-0.023
-0.015
-0.017
-0.01
-0.008
-0.008
-0.01
-0.01
-0.009
-0.002
0
0.003
0.007
0.01
0.011
0.011
0.021
0.027
0.033
0.05
0.067
0.081
0.083
0.086
0.101
0.133
0.139
0.131
0.111
0.096
0.082
0.072
0.045
0.021
-0.001
-0.002
-0.003
-0.007
-0.013
-0.018
-0.018
-0.016
-0.023
-0.022
-0.019
-0.022
-0.01
-0.006
-0.011
-0.011
-0.005
-0.014
-0.01
-0.009
-0.018
0.007
0.087
0.208
0.324
0.513
0.608
0.729
0.75
0.519
0.041
-0.445
-0.944
-1.107
-1.08
-0.954
-0.78
-0.586
-0.324
-0.107
0.056
0.135
0.185
0.208
0.231
0.24
0.253
0.251
0.258
0.272
0.278
0.272
0.282
0.294
0.294
0.294
0.29
0.296
0.295
0.294
0.294
0.303
0.305
0.31
0.313
0.317
0.321
0.321
0.321
0.327
0.34
0.346
0.348
0.35
0.353
0.345
0.341
0.328
0.328
0.316
0.303
0.279
0.266
0.248
0.225
0.2
0.176
0.158
0.133
0.107
0.074
0.044
0.012
-0.017
-0.051
-0.076
-0.11
-0.136
-0.164
-0.188
-0.2
-0.217
-0.228
-0.239
-0.244
-0.255
-0.268
-0.274
-0.274
-0.282
-0.275
-0.279
-0.271
-0.267
-0.264
-0.259
-0.251
-0.243
-0.237
-0.23
-0.223
-0.212
-0.209
-0.199
-0.197
-0.185
-0.185
-0.178
-0.174
-0.163
-0.157
-0.156
-0.151
-0.146
-0.141
-0.139
-0.133
-0.137
-0.137
-0.137
-0.132
-0.134
-0.129
-0.134
-0.13
-0.128
-0.126
-0.124
-0.122
-0.123
-0.121
-0.117
-0.115
-0.107
-0.107
-0.102
-0.107
-0.099
-0.102
-0.104
-0.103
-0.101
-0.098
-0.098
-0.093
-0.087
-0.088
-0.089
-0.078
-0.079
-0.076
-0.074
-0.072
-0.072
-0.07
-0.069
-0.058
-0.051
-0.043
-0.039
-0.025
0.003
0.018
0.04
0.04
0.047
0.058
0.074
0.082
0.079
0.067
0.048
0.026
0.023
0.007
-0.012
-0.029
-0.033
-0.039
-0.048
-0.051
-0.056
-0.055
-0.063
-0.058
-0.056
-0.052
-0.055
-0.048
-0.048
-0.044
-0.036
-0.027
-0.024
-0.025
-0.023
-0.027
-0.005
0.07
0.199
0.296
0.482
0.597
0.7
0.772
0.59
0.097
-0.381
-0.914
-1.144
-1.151
-1.016
-0.826
-0.622
-0.331
-0.097
0.064
0.144
0.191
0.216
0.233
0.251
0.258
0.266
0.273
0.279
0.283
0.286
0.289
0.296
0.294
0.301
0.3
0.309
0.307
0.309
0.309
0.315
0.321
0.33
0.327
0.333
0.344
0.344
0.351
0.355
0.366
0.368
0.367
0.37
0.373
0.37
0.372
0.364
0.356
0.344
0.33
0.314
0.29
0.272
0.246
0.225
0.197
0.177
0.146
0.115
0.079
0.046
0.009
-0.022
-0.059
-0.093
-0.12
-0.149
-0.168
-0.197
-0.209
-0.228
-0.238
-0.252
-0.261
-0.269
-0.272
-0.277
-0.283
-0.284
-0.283
-0.285
-0.283
-0.275
-0.273
-0.259
-0.257
-0.249
-0.248
-0.228
-0.219
-0.212
-0.204
-0.186
-0.183
-0.169
-0.161
-0.152
-0.147
-0.146
-0.137
-0.133
-0.124
-0.123
-0.118
-0.119
-0.113
-0.113
-0.108
-0.105
-0.104
-0.108
-0.107
-0.103
-0.106
-0.103
-0.1
-0.102
-0.102
-0.089
-0.09
-0.087
-0.087
-0.084
-0.086
-0.081
-0.074
-0.069
-0.076
-0.072
-0.067
-0.064
-0.062
-0.063
-0.058
-0.062
-0.056
-0.057
-0.049
-0.051
-0.048
-0.048
-0.04
-0.039
-0.036
-0.034
-0.031
-0.026
-0.026
-0.018
-0.023
-0.02
-0.021
-0.011
-0.011
-0.001
0.002
-0.001
-0.001
0.002
0.004
0.009
0.006
0.009
0.018
0.026
0.033
0.049
0.069
0.079
0.096
0.095
0.11
0.124
0.138
0.138
0.132
0.119
0.083
0.082
0.07
0.053
0.031
0.028
0.017
0.014
0.001
0.002
-0.003
-0.004
-0.008
-0.01
-0.01
-0.004
0.004
0.004
0.015
0.016
0.02
0.018
0.03
0.028
0.027
0.018
0.059
0.173
0.255
0.427
0.58
0.664
0.756
0.741
0.42
-0.118
-0.615
-1.05
-1.16
-1.07
-0.858
-0.65
-0.374
-0.116
0.066
0.157
0.212
0.241
0.261
0.278
0.29
0.287
0.296
0.304
0.307
0.307
0.308
0.311
0.313
0.312
0.314
0.314
0.317
0.315
0.314
0.318
0.324
0.336
0.331
0.341
0.348
0.356
0.353
0.354
0.362
0.372
0.365
0.368
0.368
0.375
0.374
0.364
0.355
0.348
0.335
0.316
0.305
0.284
0.265
0.238
0.217
0.197
0.17
0.141
0.111
0.078
0.05
0.015
-0.023
-0.056
-0.089
-0.12
-0.152
-0.173
-0.194
-0.213
-0.239
-0.247
-0.263
-0.268
-0.277
-0.281
-0.289
-0.289
-0.284
-0.29
-0.284
-0.28
-0.268
-0.267
-0.258
-0.254
-0.244
-0.236
-0.231
-0.223
-0.215
-0.207
-0.202
-0.194
-0.19
-0.179
-0.174
-0.169
-0.167
-0.156
-0.159
-0.147
-0.146
-0.14
-0.142
-0.138
-0.136
-0.137
-0.136
-0.138
-0.136
-0.139
-0.138
-0.141
-0.139
-0.137
-0.139
-0.139
-0.139
-0.135
-0.136
-0.131
-0.134
-0.128
-0.13
-0.127
-0.126
-0.126
-0.121
-0.115
-0.113
-0.109
-0.106
-0.107
-0.108
-0.101
-0.1
-0.096
-0.097
-0.091
-0.094
-0.092
-0.084
-0.085
-0.081
-0.075
-0.071
-0.072
-0.068
-0.065
-0.064
-0.062
-0.057
-0.051
-0.049
-0.043
-0.041
-0.04
-0.036
-0.033
-0.035
-0.029
-0.028
-0.022
-0.023
-0.015
-0.016
-0.009
0.002
0.004
0.008
0.008
0.009
0.009
0.009
0.017
0.024
0.028
0.047
0.063
0.084
0.091
0.104
0.102
0.118
0.136
0.14
0.132
0.127
0.104
0.073
0.066
0.05
0.028
0.008
0.007
-0.001
-0.002
-0.007
-0.015
-0.022
-0.02
-0.017
-0.015
-0.018
-0.016
-0.01
-0.01
-0.004
-0.005
0.004
0.003
0.009
0
-0.002
0.016
0.087
0.185
0.287
0.457
0.591
0.699
0.758
0.631
0.15
-0.336
-0.831
-1.084
-1.109
-0.93
-0.738
-0.51
-0.241
-0.02
0.1
0.161
0.196
0.218
0.236
0.245
0.252
0.249
0.269
0.275
0.275
0.266
0.278
0.279
0.28
0.28
0.283
0.288
0.287
0.286
0.288
0.295
0.298
0.296
0.298
0.308
0.312
0.316
0.315
0.325
0.329
0.329
0.329
0.331
0.34
0.339
0.339
0.326
0.325
0.314
0.303
0.282
0.272
0.256
0.236
0.209
0.19
0.165
0.141
0.114
0.09
0.054
0.022
-0.01
-0.049
-0.077
-0.107
-0.14
-0.171
-0.191
-0.214
-0.23
-0.248
-0.265
-0.277
-0.284
-0.292
-0.299
-0.3
-0.307
-0.304
-0.297
-0.297
-0.294
-0.288
-0.286
-0.277
-0.277
-0.266
-0.255
-0.248
-0.235
-0.229
-0.227
-0.22
-0.208
-0.199
-0.196
-0.197
-0.186
-0.185
-0.178
-0.173
-0.162
-0.161
-0.154
-0.151
-0.15
-0.144
-0.142
-0.139
-0.143
-0.136
-0.142
-0.14
-0.142
-0.135
-0.135
-0.132
-0.134
-0.129
-0.124
-0.124
-0.125
-0.119
-0.11
-0.113
-0.106
-0.11
-0.106
-0.102
-0.098
-0.097
-0.096
-0.093
-0.076
-0.079
-0.075
-0.072
-0.072
-0.063
-0.061
-0.054
-0.056
-0.05
-0.05
-0.042
-0.042
-0.036
-0.036
-0.035
-0.035
-0.029
-0.022
-0.018
-0.014
-0.013
-0.007
-0.01
0
0.005
0.009
0.004
0.014
0.016
0.02
0.018
0.018
0.02
0.022
0.023
0.029
0.038
0.046
0.071
0.091
0.106
0.113
0.118
0.118
0.141
0.157
0.162
0.154
0.141
0.109
0.104
0.095
0.07
0.054
0.04
0.036
0.027
0.023
0.016
0.011
0.002
0.007
0.003
0.005
0.012
0.011
0.01
0.01
0.02
0.021
0.029
0.026
0.026
0.024
0.023
0.065
0.173
0.252
0.427
0.573
0.677
0.789
0.756
0.398
-0.12
-0.629
-1.017
-1.084
-0.993
-0.805
-0.631
-0.377
-0.138
0.049
0.135
0.184
0.211
0.224
0.235
0.241
0.245
0.249
0.266
0.265
0.267
0.263
0.272
0.27
0.271
0.268
0.272
0.285
0.285
0.291
0.292
0.308
0.311
0.318
0.32
0.326
0.333
0.339
0.341
0.35
0.349
0.352
0.353
0.357
0.362
0.36
0.355
0.348
0.337
0.321
0.304
0.288
0.277
0.25
0.229
0.201
0.184
0.162
0.135
0.096
0.066
0.043
0.006
-0.031
-0.062
-0.092
-0.116
-0.144
-0.166
-0.187
-0.211
-0.227
-0.249
-0.256
-0.262
-0.271
-0.277
-0.279
-0.278
-0.28
-0.283
-0.281
-0.279
-0.275
-0.273
-0.27
-0.26
-0.25
-0.243
-0.237
-0.226
-0.215
-0.21
-0.209
-0.204
-0.199
-0.195
-0.197
-0.186
-0.172
-0.169
-0.161
-0.165
-0.156
-0.15
-0.151
-0.154
-0.152
-0.15
-0.144
-0.146
-0.147
-0.147
-0.148
-0.148
-0.152
-0.14
-0.139
-0.139
-0.139
-0.135
-0.133
-0.134
-0.131
-0.125
-0.12
-0.123
-0.117
-0.114
-0.105
-0.104
-0.103
-0.102
-0.099
-0.092
-0.081
-0.086
-0.086
-0.084
-0.077
-0.075
-0.06
-0.051
-0.04
-0.015
-0.004
0.014
0.019
0.028
0.038
0.066
0.084
0.086
0.078
0.061
0.032
0.021
0.012
-0.003
-0.023
-0.036
-0.031
-0.039
-0.048
-0.059
-0.06
-0.062
-0.058
-0.056
-0.048
-0.048
-0.045
-0.038
-0.031
-0.022
-0.021
-0.014
-0.017
-0.012
-0.017
-0.01
0.026
0.132
0.241
0.401
0.576
0.665
0.783
0.719
0.372
-0.105
-0.615
-1.026
-1.114
-1.042
-0.889
-0.728
-0.504
-0.245
-0.032
0.095
0.169
0.212
0.232
0.247
0.263
0.264
0.27
0.273
0.278
0.277
0.283
0.292
0.295
0.3
0.294
0.302
0.305
0.3
0.302
0.306
0.312
0.318
0.319
0.325
0.34
0.342
0.347
0.343
0.36
0.364
0.375
0.373
0.372
0.371
0.374
0.369
0.36
0.354
0.338
0.324
0.303
0.289
0.269
0.244
0.214
0.195
0.17
0.139
0.11
0.071
0.041
0.01
-0.018
-0.052
-0.084
-0.107
-0.135
-0.17
-0.178
-0.198
-0.21
-0.232
-0.24
-0.24
-0.247
-0.254
-0.248
-0.257
-0.255
-0.25
-0.252
-0.248
-0.242
-0.243
-0.237
-0.23
-0.222
-0.215
-0.211
-0.202
-0.195
-0.188
-0.182
-0.175
-0.169
-0.166
-0.161
-0.159
-0.152
-0.149
-0.148
-0.146
-0.13
-0.132
-0.132
-0.134
-0.132
-0.131
-0.127
-0.126
-0.124
-0.119
-0.117
-0.115
-0.118
-0.116
-0.122
-0.113
-0.116
-0.112
-0.114
-0.115
-0.117
-0.112
-0.111
-0.108
-0.108
-0.103
-0.09
-0.087
-0.067
-0.044
-0.02
-0.004
0.011
0.006
0.024
0.047
0.064
0.065
0.052
0.031
0.004
0.006
-0.014
-0.03
-0.049
-0.061
-0.068
-0.067
-0.075
-0.079
-0.088
-0.094
-0.09
-0.088
-0.085
-0.09
-0.084
-0.081
-0.074
-0.069
-0.064
-0.058
-0.057
-0.057
-0.048
-0.053
-0.02
0.083
0.198
0.342
0.52
0.603
0.711
0.706
0.389
-0.126
-0.628
-1.082
-1.2
-1.139
-0.964
-0.779
-0.54
-0.25
-0.028
0.102
0.171
0.206
0.231
0.243
0.256
0.262
0.264
0.266
0.278
0.28
0.282
0.286
0.293
0.292
0.297
0.306
0.314
0.316
0.313
0.316
0.321
0.33
0.336
0.344
0.344
0.357
0.36
0.359
0.366
0.375
0.376
0.38
0.384
0.384
0.375
0.369
0.365
0.351
0.341
0.318
0.302
0.282
0.261
0.233
0.21
0.19
0.162
0.129
0.096
0.065
0.028
-0.005
-0.041
-0.072
-0.111
-0.131
-0.161
-0.179
-0.207
-0.221
-0.236
-0.245
-0.253
-0.263
-0.265
-0.273
-0.275
-0.28
-0.275
-0.279
-0.274
-0.269
-0.256
-0.253
-0.245
-0.243
-0.232
-0.222
-0.215
-0.204
-0.201
-0.187
-0.178
-0.173
-0.167
-0.152
-0.149
-0.147
-0.14
-0.131
-0.127
-0.12
-0.118
-0.12
-0.118
-0.113
-0.101
-0.101
-0.099
-0.103
-0.096
-0.1
-0.096
-0.092
-0.088
-0.095
-0.092
-0.092
-0.087
-0.084
-0.081
-0.078
-0.077
-0.077
-0.074
-0.072
-0.077
-0.071
-0.07
-0.062
-0.061
-0.056
-0.057
-0.045
-0.042
-0.024
0.005
0.02
0.033
0.033
0.034
0.052
0.074
0.086
0.081
0.066
0.044
0.024
0.016
-0.01
-0.023
-0.042
-0.05
-0.051
-0.055
-0.059
-0.063
-0.065
-0.068
-0.058
-0.056
-0.059
-0.063
-0.055
-0.048
-0.045
-0.036
-0.035
-0.028
-0.027
-0.017
-0.019
-0.024
0.024
0.139
0.226
0.401
0.551
0.635
0.738
0.699
0.337
-0.196
-0.703
-1.115
-1.2
-1.104
-0.888
-0.682
-0.398
-0.131
0.058
0.148
0.197
0.224
0.244
0.259
0.269
0.272
0.278
0.292
0.296
0.293
0.293
0.3
0.31
0.313
0.312
0.317
0.319
0.328
0.325
0.336
0.344
0.346
0.35
0.354
0.359
0.364
0.363
0.368
0.379
0.384
0.387
0.382
0.391
0.391
0.387
0.371
0.365
0.357
0.342
0.321
0.301
0.288
0.265
0.241
0.21
0.191
0.165
0.133
0.095
0.071
0.033
0.006
-0.03
-0.068
-0.089
-0.117
-0.147
-0.173
-0.184
-0.203
-0.213
-0.226
-0.233
-0.246
-0.246
-0.252
-0.253
-0.255
-0.257
-0.262
-0.266
-0.257
-0.253
-0.247
-0.235
-0.222
-0.218
-0.203
-0.198
-0.186
-0.177
-0.162
-0.16
-0.151
-0.148
-0.141
-0.134
-0.132
-0.126
-0.125
-0.121
-0.121
-0.112
-0.111
-0.108
-0.108
-0.105
-0.108
-0.106
-0.109
-0.102
-0.101
-0.101
-0.097
-0.097
-0.092
-0.094
-0.095
-0.094
-0.093
-0.094
-0.094
-0.102
-0.102
-0.105
-0.101
-0.102
-0.097
-0.096
-0.098
-0.09
-0.09
-0.091
-0.091
-0.09
-0.09
-0.088
-0.091
-0.087
-0.084
-0.08
-0.077
-0.072
-0.068
-0.063
-0.059
-0.058
-0.057
-0.054
-0.054
-0.053
-0.041
-0.042
-0.046
-0.041
-0.033
-0.024
-0.014
-0.002
0.023
0.041
0.059
0.067
0.064
0.076
0.099
0.106
0.101
0.103
0.077
0.059
0.05
0.032
0.01
-0.005
-0.007
-0.013
-0.02
-0.023
-0.026
-0.034
-0.031
-0.035
-0.033
-0.035
-0.028
-0.026
-0.02
-0.021
-0.016
-0.013
-0.01
-0.019
-0.01
-0.006
-0.01
0.008
0.081
0.192
0.293
0.465
0.586
0.686
0.744
0.609
0.102
-0.392
-0.877
-1.131
-1.143
-0.952
-0.753
-0.505
-0.227
-0.007
0.114
0.174
0.214
0.226
0.242
0.248
0.249
0.255
0.269
0.267
0.271
0.274
0.284
0.291
0.294
0.293
0.294
0.308
0.309
0.312
0.313
0.32
0.321
0.323
0.323
0.328
0.343
0.345
0.351
0.35
0.363
0.365
0.365
0.365
0.366
0.362
0.358
0.346
0.341
0.33
0.314
0.295
0.273
0.266
0.24
0.218
0.197
0.178
0.145
0.121
0.089
0.066
0.034
0.002
-0.037
-0.071
-0.098
-0.132
-0.161
-0.179
-0.19
-0.213
-0.23
-0.245
-0.257
-0.266
-0.276
-0.286
-0.292
-0.288
-0.288
-0.291
-0.282
-0.279
-0.273
-0.272
-0.261
-0.25
-0.247
-0.241
-0.236
-0.225
-0.218
-0.209
-0.206
-0.197
-0.189
-0.187
-0.177
-0.171
-0.165
-0.163
-0.151
-0.155
-0.142
-0.141
-0.138
-0.132
-0.13
-0.131
-0.124
-0.128
-0.126
-0.122
-0.127
-0.122
-0.121
-0.122
-0.118
-0.117
-0.116
-0.119
-0.115
-0.111
-0.112
-0.107
-0.103
-0.104
-0.098
-0.093
-0.096
-0.097
-0.087
-0.087
-0.088
-0.088
-0.087
-0.085
-0.083
-0.081
-0.071
-0.061
-0.064
-0.064
-0.065
-0.055
-0.051
-0.045
-0.042
-0.043
-0.032
-0.036
-0.04
-0.033
-0.04
-0.034
-0.032
-0.034
-0.038
-0.03
-0.035
-0.031
-0.027
-0.022
-0.021
-0.016
-0.015
-0.016
-0.008
-0.006
-0.002
-0.004
-0.003
-0.002
0.006
0.008
0.009
0.006
0.007
0.012
0.01
0.017
0.014
0.017
0.018
0.028
0.034
0.055
0.071
0.089
0.101
0.112
0.115
0.14
0.156
0.161
0.155
0.141
0.116
0.097
0.085
0.058
0.039
0.027
0.018
0.009
0.007
0.003
-0.001
-0.004
-0.003
-0.006
-0.007
-0.002
0
0.004
0.006
0.011
0.015
0.024
0.022
0.026
0.019
0.025
0.02
0.066
0.177
0.242
0.419
0.561
0.664
0.744
0.717
0.357
-0.158
-0.656
-1.02
-1.108
-0.984
-0.785
-0.569
-0.307
-0.065
0.087
0.158
0.199
0.221
0.24
0.254
0.261
0.263
0.27
0.279
0.282
0.281
0.277
0.287
0.29
0.288
0.287
0.299
0.296
0.296
0.297
0.305
0.304
0.31
0.309
0.317
0.323
0.323
0.326
0.327
0.34
0.341
0.343
0.338
0.349
0.347
0.343
0.332
0.331
0.321
0.308
0.286
0.271
0.253
0.225
0.207
0.186
0.162
0.137
0.103
0.073
0.049
0.015
-0.017
-0.056
-0.082
-0.116
-0.145
-0.179
-0.207
-0.231
-0.251
-0.273
-0.286
-0.293
-0.304
-0.312
-0.322
-0.318
-0.322
-0.318
-0.32
-0.321
-0.314
-0.305
-0.301
-0.293
-0.285
-0.28
-0.273
-0.266
-0.251
-0.24
-0.235
-0.225
-0.214
-0.209
-0.194
-0.195
-0.186
-0.173
-0.167
-0.169
-0.157
-0.153
-0.151
-0.147
-0.144
-0.142
-0.139
-0.133
-0.139
-0.139
-0.14
-0.13
-0.13
-0.127
-0.129
-0.124
-0.127
-0.122
-0.119
-0.118
-0.113
-0.119
-0.114
-0.11
-0.105
-0.105
-0.098
-0.097
-0.089
-0.094
-0.092
-0.087
-0.083
-0.079
-0.08
-0.078
-0.076
-0.071
-0.07
-0.066
-0.068
-0.059
-0.061
-0.051
-0.052
-0.047
-0.051
-0.041
-0.036
-0.031
-0.027
-0.03
-0.023
-0.025
-0.018
-0.016
-0.016
-0.02
-0.016
-0.013
-0.008
-0.009
-0.006
-0.007
-0.01
0
-0.001
0.004
0.002
0.009
0.01
0.015
0.017
0.022
0.017
0.022
0.021
0.023
0.026
0.029
0.029
0.028
0.03
0.036
0.046
0.052
0.067
0.083
0.105
0.113
0.114
0.114
0.133
0.149
0.152
0.144
0.132
0.108
0.089
0.078
0.051
0.028
0.019
0.021
0.014
0.017
0.006
-0.005
-0.008
-0.008
-0.013
-0.01
-0.009
-0.008
-0.004
-0.005
-0.001
-0.003
0.014
0.015
0.013
0.008
0.008
0.018
0.081
0.186
0.276
0.443
0.574
0.68
0.752
0.649
0.182
-0.313
-0.805
-1.068
-1.094
-0.919
-0.733
-0.508
-0.245
-0.022
0.1
0.165
0.202
0.215
0.236
0.249
0.261
0.261
0.268
0.269
0.279
0.274
0.279
0.283
0.286
0.281
0.287
0.298
0.303
0.304
0.305
0.312
0.312
0.317
0.323
0.334
0.335
0.347
0.349
0.356
0.36
0.362
0.36
0.363
0.363
0.355
0.353
0.346
0.34
0.328
0.313
0.291
0.28
0.258
0.238
0.207
0.179
0.174
0.145
0.118
0.093
0.06
0.028
-0.002
-0.043
-0.071
-0.104
-0.132
-0.164
-0.188
-0.212
-0.238
-0.252
-0.258
-0.262
-0.274
-0.292
-0.299
-0.301
-0.305
-0.302
-0.299
-0.297
-0.295
-0.294
-0.291
-0.285
-0.278
-0.269
-0.254
-0.246
-0.236
-0.229
-0.218
-0.218
-0.202
-0.197
-0.182
-0.179
-0.173
-0.164
-0.158
-0.154
-0.146
-0.14
-0.138
-0.136
-0.126
-0.127
-0.125
-0.118
-0.116
-0.116
-0.12
-0.116
-0.115
-0.112
-0.114
-0.109
-0.104
-0.1
-0.102
-0.097
-0.092
-0.093
-0.092
-0.089
-0.09
-0.092
-0.083
-0.089
-0.079
-0.08
-0.077
-0.077
-0.071
-0.07
-0.069
-0.063
-0.061
-0.054
-0.053
-0.053
-0.049
-0.045
-0.045
-0.043
-0.048
-0.044
-0.044
-0.048
-0.03
-0.026
-0.028
