0.313
0.309
0.319
0.396
0.451
0.455
0.381
0.295
0.3
0.424
0.532
0.502
0.429
0.337
0.276
0.23
0.235
0.252
0.259
0.271
0.297
0.373
0.315
0.233
0.146
0.086
0.091
0.108
0.096
0.103
0.079
0.058
0.025
-0.046
-0.076
-0.099
-0.081
-0.027
-0.023
-0.079
-0.142
-0.248
-0.274
-0.248
-0.237
-0.207
-0.189
-0.246
-0.228
-0.209
-0.204
-0.169
-0.102
-0.052
-0.07
-0.028
-0.085
-0.169
-0.232
-0.217
-0.194
-0.13
-0.04
0.004
0.007
-0.068
-0.156
-0.22
-0.173
-0.111
-0.075
-0.067
-0.047
-0.073
-0.069
-0.084
-0.094
-0.086
-0.046
-0.003
-0.039
-0.161
-0.138
-0.053
-0.046
-0.083
-0.123
-0.13
-0.129
-0.106
-0.091
-0.047
-0.046
-0.076
-0.098
-0.048
-0.01
0.016
-0.027
-0.028
0.039
-0.025
-0.141
-0.211
-0.167
-0.111
-0.042
-0.019
-0.042
-0.029
-0.01
-0.069
-0.119
-0.107
-0.016
0.064
0.06
0.06
-0.057
-0.124
-0.096
-0.038
-0.05
-0.031
-0.027
0.017
0.064
0.094
0.082
0.053
0.051
0.113
0.165
0.202
0.151
0.064
0.008
0.085
0.064
-0.029
-0.074
-0.087
-0.091
-0.067
-0.045
-0.053
-0.083
-0.04
-0.015
0.04
-0.014
-0.044
-0.062
-0.039
-0.049
0.018
0.062
0.072
-0.069
-0.157
-0.169
-0.085
-0.043
0.001
0.121
0.249
0.426
0.522
0.707
0.746
0.465
-0.049
-0.613
-1.051
-1.079
-0.864
-0.659
-0.54
-0.297
-0.119
-0.031
0
0.043
0.085
0.121
0.15
0.159
0.192
0.206
0.19
0.204
0.24
0.23
0.222
0.251
0.241
0.255
0.241
0.248
0.261
0.298
0.27
0.232
0.252
0.278
0.254
0.313
0.35
0.375
0.298
0.281
0.3
0.308
0.347
0.362
0.434
0.399
0.32
0.232
0.247
0.289
0.328
0.238
0.111
0.068
0.09
0.125
0.129
0.12
0.064
0.053
0.04
0.043
-0.01
-0.071
-0.139
-0.134
-0.149
-0.177
-0.174
-0.138
-0.134
-0.212
-0.274
-0.264
-0.275
-0.304
-0.259
-0.205
-0.195
-0.239
-0.269
-0.257
-0.25
-0.175
-0.095
-0.132
-0.254
-0.261
-0.247
-0.225
-0.195
-0.158
-0.159
-0.122
-0.128
-0.083
-0.054
-0.105
-0.18
-0.208
-0.165
-0.127
-0.083
-0.145
-0.181
-0.199
-0.123
-0.083
-0.098
-0.155
-0.143
-0.099
-0.083
-0.089
-0.129
-0.122
-0.104
-0.083
-0.078
-0.055
-0.094
-0.089
-0.052
0.029
-0.039
-0.082
-0.172
-0.162
-0.111
-0.115
-0.146
-0.117
-0.076
-0.03
-0.042
-0.088
-0.071
-0.038
-0.045
-0.09
-0.089
-0.052
-0.03
-0.031
0.027
0.081
0.002
-0.134
-0.198
-0.117
-0.029
0.011
0.025
0.05
0.004
0.026
0.003
-0.018
0.021
0.04
0.051
0.057
0.078
0.131
0.126
0.068
0.023
0.072
0.043
-0.026
-0.042
-0.013
0.023
-0.005
-0.046
-0.041
-0.021
-0.03
-0.042
-0.036
-0.032
-0.023
-0.038
-0.03
-0.016
0.008
-0.013
-0.028
-0.005
0.032
0.002
0.012
0.082
0.167
0.201
0.347
0.483
0.665
0.869
0.673
0.253
-0.198
-0.728
-0.973
-0.912
-0.813
-0.665
-0.507
-0.259
-0.019
0.128
0.158
0.151
0.155
0.184
0.248
0.251
0.273
0.258
0.28
0.286
0.268
0.268
0.287
0.292
0.274
0.257
0.278
0.314
0.311
0.32
0.325
0.326
0.301
0.333
0.35
0.346
0.348
0.351
0.352
0.354
0.371
0.38
0.352
0.341
0.368
0.369
0.352
0.3
0.305
0.298
0.305
0.241
0.211
0.183
0.175
0.169
0.148
0.116
0.088
0.048
0.009
-0.017
-0.022
-0.032
-0.002
0.017
-0.076
-0.208
-0.304
-0.293
-0.269
-0.244
-0.239
-0.24
-0.238
-0.231
-0.205
-0.216
-0.223
-0.225
-0.215
-0.204
-0.207
-0.189
-0.172
-0.202
-0.202
-0.197
-0.201
-0.211
-0.205
-0.185
-0.16
-0.161
-0.168
-0.162
-0.133
-0.103
-0.106
-0.118
-0.148
-0.141
-0.129
-0.023
0.011
-0.037
-0.152
-0.226
-0.224
-0.192
-0.134
-0.099
-0.107
-0.103
-0.092
-0.12
-0.148
-0.132
-0.108
-0.082
-0.09
-0.079
-0.086
-0.061
-0.085
-0.089
-0.088
-0.091
-0.092
-0.081
-0.041
0.007
0.015
-0.061
-0.112
-0.099
-0.08
-0.04
0.024
0.05
0.062
0.032
-0.002
-0.013
0.022
0.061
0.114
0.122
0.117
0.074
0.032
0.021
0.003
-0.015
-0.036
0
0.045
0.038
-0.036
-0.084
-0.1
-0.061
-0.017
0.027
0.027
-0.002
-0.111
-0.118
-0.121
-0.1
-0.056
-0.034
-0.025
-0.026
-0.025
-0.022
0.007
0.062
0.143
0.306
0.514
0.648
0.825
0.73
0.313
-0.16
-0.733
-1.068
-1.048
-0.832
-0.688
-0.588
-0.379
-0.149
-0.01
0.101
0.2
0.222
0.239
0.197
0.172
0.169
0.193
0.225
0.266
0.265
0.273
0.306
0.263
0.208
0.206
0.226
0.283
0.329
0.346
0.332
0.272
0.274
0.28
0.305
0.353
0.426
0.411
0.352
0.329
0.348
0.341
0.354
0.34
0.345
0.322
0.315
0.318
0.313
0.279
0.255
0.306
0.333
0.286
0.153
0.035
-0.008
0.012
0.01
0.033
-0.003
-0.047
-0.1
-0.136
-0.155
-0.187
-0.181
-0.154
-0.155
-0.187
-0.19
-0.213
-0.244
-0.342
-0.344
-0.306
-0.231
-0.181
-0.194
-0.233
-0.292
-0.277
-0.27
-0.228
-0.235
-0.246
-0.266
-0.243
-0.22
-0.205
-0.19
-0.157
-0.134
-0.133
-0.173
-0.193
-0.197
-0.135
-0.069
-0.071
-0.127
-0.167
-0.177
-0.21
-0.197
-0.17
-0.09
-0.026
-0.04
-0.157
-0.237
-0.21
-0.145
-0.077
-0.055
-0.1
-0.125
-0.144
-0.16
-0.135
-0.1
-0.041
-0.062
-0.13
-0.15
-0.141
-0.096
-0.075
-0.055
-0.031
-0.019
-0.056
-0.097
-0.107
-0.084
-0.004
0.089
0.053
-0.014
-0.034
-0.044
-0.029
0.03
0.066
0.057
0.044
0.04
0.071
0.091
0.024
-0.069
-0.091
-0.111
-0.087
-0.055
0.011
0.012
-0.07
-0.135
-0.119
-0.118
-0.095
-0.054
-0.039
-0.056
-0.052
-0.058
-0.079
-0.058
-0.051
-0.023
-0.009
-0.003
-0.002
0.12
0.264
0.422
0.435
0.513
0.691
0.596
0.153
-0.29
-0.85
-1.125
-1.103
-0.886
-0.688
-0.474
-0.227
-0.016
0.055
0.103
0.139
0.191
0.254
0.289
0.233
0.144
0.138
0.158
0.21
0.325
0.406
0.354
0.185
0.133
0.13
0.157
0.206
0.23
0.255
0.279
0.314
0.311
0.298
0.278
0.291
0.292
0.348
0.439
0.524
0.522
0.35
0.219
0.181
0.24
0.276
0.304
0.311
0.304
0.266
0.237
0.229
0.183
0.187
0.182
0.193
0.156
0.104
0.029
0.044
0.132
0.202
0.046
-0.191
-0.321
-0.283
-0.217
-0.228
-0.289
-0.341
-0.317
-0.263
-0.237
-0.269
-0.277
-0.255
-0.23
-0.244
-0.262
-0.25
-0.202
-0.219
-0.228
-0.224
-0.19
-0.13
-0.169
-0.24
-0.258
-0.195
-0.161
-0.135
-0.121
-0.113
-0.153
-0.154
-0.148
-0.169
-0.175
-0.167
-0.106
-0.051
-0.075
-0.147
-0.144
-0.118
-0.109
-0.114
-0.118
-0.11
-0.088
-0.095
-0.099
-0.108
-0.089
-0.086
-0.091
-0.069
-0.06
-0.085
-0.098
-0.099
-0.055
0.081
0.065
-0.11
-0.204
-0.146
-0.072
-0.007
0.014
0.021
-0.001
-0.004
0.033
0.062
0.1
0.086
0.077
0.043
0.056
0.027
-0.002
-0.02
-0.022
-0.052
-0.072
-0.064
-0.064
-0.021
0.029
-0.024
-0.12
-0.157
-0.161
-0.09
-0.061
-0.069
-0.076
-0.049
-0.039
-0.04
-0.058
-0.058
-0.026
0.004
0.096
0.132
0.273
0.484
0.63
0.813
0.782
0.404
-0.014
-0.608
-1.069
-1.084
-0.918
-0.761
-0.584
-0.309
-0.09
0.034
0.102
0.158
0.169
0.149
0.187
0.24
0.243
0.196
0.234
0.216
0.218
0.204
0.204
0.22
0.246
0.266
0.298
0.277
0.262
0.266
0.268
0.281
0.328
0.338
0.346
0.324
0.33
0.314
0.312
0.328
0.363
0.375
0.365
0.357
0.376
0.386
0.347
0.33
0.321
0.339
0.313
0.29
0.246
0.225
0.21
0.173
0.159
0.129
0.11
0.06
0.031
0.011
0
-0.053
-0.093
-0.115
-0.118
-0.142
-0.168
-0.188
-0.181
-0.185
-0.211
-0.199
-0.203
-0.202
-0.225
-0.23
-0.206
-0.196
-0.203
-0.208
-0.202
-0.182
-0.177
-0.18
-0.172
-0.156
-0.146
-0.144
-0.143
-0.127
-0.136
-0.127
-0.12
-0.11
-0.095
-0.102
-0.102
-0.102
-0.096
-0.096
-0.102
-0.1
-0.091
-0.086
-0.1
-0.098
-0.098
-0.095
-0.104
-0.105
-0.111
-0.22
-0.182
-0.228
-0.182
-0.161
-0.206
-0.061
-0.062
-0.012
0.012
0.012
0.004
0.031
0.055
0.041
0.061
0.06
0.087
0.052
0.007
0.013
-0.004
-0.018
-0.073
-0.08
-0.068
-0.055
-0.057
-0.05
-0.072
-0.063
-0.065
-0.083
-0.082
-0.072
-0.06
-0.067
-0.051
-0.052
-0.03
-0.02
-0.029
-0.003
0.004
-0.018
-0.011
0.035
0.173
0.292
0.468
0.583
0.773
0.805
0.448
0.042
-0.45
-0.883
-0.984
-0.898
-0.805
-0.666
-0.479
-0.232
-0.033
0.09
0.138
0.188
0.202
0.201
0.21
0.228
0.224
0.237
0.268
0.278
0.291
0.281
0.284
0.282
0.3
0.304
0.319
0.334
0.346
0.344
0.334
0.362
0.379
0.389
0.375
0.371
0.389
0.404
0.397
0.482
0.509
0.518
0.506
0.463
0.434
0.355
0.306
0.281
0.258
0.23
0.231
0.223
0.213
0.207
0.247
0.196
0.141
0.107
0.074
0.032
-0.003
-0.022
0
-0.008
-0.06
-0.128
-0.16
-0.185
-0.191
-0.18
-0.191
-0.198
-0.209
-0.156
-0.153
-0.179
-0.192
-0.176
-0.191
-0.185
-0.186
-0.162
-0.118
-0.087
-0.086
-0.126
-0.194
-0.23
-0.203
-0.178
-0.162
-0.141
-0.136
-0.115
-0.118
-0.119
-0.118
-0.119
-0.122
-0.111
-0.112
-0.066
-0.071
-0.1
-0.115
-0.121
-0.131
-0.111
-0.086
-0.092
-0.098
-0.112
-0.108
-0.091
-0.074
-0.055
-0.027
-0.031
-0.007
-0.026
0.005
0.076
0.192
0.236
0.158
0.02
-0.104
-0.187
-0.159
-0.132
-0.102
-0.084
-0.09
-0.079
-0.098
-0.141
-0.163
-0.11
-0.011
0.007
-0.037
-0.176
-0.243
-0.173
-0.095
-0.068
-0.132
-0.182
-0.165
-0.175
-0.087
-0.109
-0.068
-0.056
0.053
0.168
0.179
0.285
0.4
0.565
0.654
0.442
-0.024
-0.581
-1.162
-1.324
-1.208
-0.98
-0.745
-0.471
-0.223
-0.026
0.069
0.115
0.129
0.156
0.188
0.182
0.166
0.165
0.182
0.194
0.223
0.206
0.211
0.207
0.218
0.234
0.233
0.23
0.229
0.241
0.254
0.265
0.278
0.312
0.346
0.336
0.305
0.29
0.284
0.299
0.322
0.333
0.341
0.337
0.37
0.387
0.358
0.293
0.26
0.28
0.319
0.262
0.194
0.116
0.091
0.066
0.05
0.027
0.022
-0.001
-0.056
-0.091
-0.131
-0.153
-0.178
-0.188
-0.219
-0.227
-0.249
-0.245
-0.272
-0.274
-0.289
-0.286
-0.284
-0.282
-0.286
-0.293
-0.282
-0.273
-0.265
-0.272
-0.26
-0.263
-0.264
-0.254
-0.243
-0.231
-0.234
-0.231
-0.227
-0.211
-0.2
-0.193
-0.187
-0.171
-0.168
-0.16
-0.166
-0.142
-0.149
-0.142
-0.147
-0.14
-0.137
-0.14
-0.144
-0.139
-0.129
-0.129
-0.126
-0.125
-0.106
-0.1
-0.066
-0.048
-0.02
-0.014
-0.016
-0.016
-0.002
0.019
0.037
0.028
0.017
-0.001
-0.025
-0.027
-0.048
-0.068
-0.098
-0.1
-0.106
-0.099
-0.111
-0.116
-0.118
-0.114
-0.106
-0.104
-0.099
-0.098
-0.09
-0.09
-0.08
-0.075
-0.059
-0.066
-0.063
-0.062
-0.058
-0.052
-0.015
0.095
0.179
0.361
0.498
0.603
0.731
0.632
0.17
-0.32
-0.885
-1.175
-1.205
-1.005
-0.791
-0.516
-0.223
-0.016
0.086
0.137
0.169
0.187
0.207
0.219
0.227
0.227
0.241
0.244
0.256
0.249
0.256
0.262
0.27
0.267
0.278
0.284
0.29
0.3
0.306
0.325
0.337
0.341
0.337
0.352
0.357
0.363
0.372
0.379
0.396
0.391
0.378
0.368
0.374
0.363
0.362
0.349
0.343
0.309
0.302
0.271
0.268
0.233
0.209
0.188
0.145
0.115
0.093
0.057
0.018
-0.012
-0.041
-0.081
-0.115
-0.12
-0.156
-0.19
-0.21
-0.213
-0.223
-0.229
-0.245
-0.255
-0.254
-0.247
-0.255
-0.263
-0.254
-0.253
-0.245
-0.254
-0.243
-0.235
-0.223
-0.224
-0.217
-0.211
-0.204
-0.198
-0.19
-0.178
-0.171
-0.16
-0.162
-0.15
-0.146
-0.135
-0.136
-0.13
-0.126
-0.124
-0.122
-0.11
-0.103
-0.086
-0.065
-0.047
-0.03
-0.039
-0.031
-0.03
-0.014
0.018
0.033
0.024
0.018
-0.009
-0.028
-0.033
-0.046
-0.065
-0.092
-0.108
-0.106
-0.106
-0.118
-0.117
-0.127
-0.121
-0.12
-0.113
-0.115
-0.108
-0.112
-0.107
-0.103
-0.095
-0.081
-0.081
-0.071
-0.074
-0.066
-0.064
-0.068
-0.064
0.008
0.135
0.249
0.443
0.558
0.713
0.77
0.483
0.046
-0.437
-0.918
-1.067
-1.005
-0.905
-0.776
-0.595
-0.342
-0.109
0.042
0.118
0.166
0.191
0.197
0.213
0.223
0.24
0.248
0.254
0.267
0.259
0.271
0.278
0.288
0.285
0.28
0.29
0.315
0.321
0.329
0.336
0.35
0.36
0.359
0.377
0.38
0.392
0.394
0.406
0.4
0.412
0.406
0.404
0.403
0.395
0.387
0.367
0.351
0.335
0.323
0.293
0.274
0.252
0.237
0.2
0.175
0.15
0.13
0.096
0.064
0.033
0.005
-0.016
-0.045
-0.063
-0.082
-0.094
-0.123
-0.126
-0.137
-0.14
-0.151
-0.151
-0.152
-0.14
-0.145
-0.144
-0.141
-0.139
-0.137
-0.141
-0.128
-0.132
-0.118
-0.121
-0.11
-0.11
-0.098
-0.102
-0.097
-0.094
-0.086
-0.08
-0.073
-0.069
-0.064
-0.056
-0.058
-0.053
-0.051
-0.049
-0.054
-0.044
-0.039
-0.04
-0.045
-0.034
-0.033
-0.014
0.006
0.02
0.034
0.033
0.031
0.033
0.057
0.074
0.087
0.066
0.05
0.021
0.006
-0.002
-0.021
-0.051
-0.072
-0.074
-0.083
-0.091
-0.1
-0.101
-0.107
-0.102
-0.109
-0.107
-0.116
-0.102
-0.103
-0.092
-0.097
-0.09
-0.088
-0.086
-0.08
-0.076
-0.076
-0.083
-0.044
0.048
0.161
0.283
0.452
0.53
0.664
0.672
0.322
-0.189
-0.706
-1.172
-1.279
-1.172
-0.967
-0.763
-0.486
-0.202
-0.029
0.064
0.108
0.141
0.157
0.176
0.193
0.191
0.197
0.205
0.217
0.218
0.223
0.228
0.242
0.239
0.248
0.252
0.267
0.27
0.272
0.278
0.293
0.3
0.3
0.311
0.322
0.335
0.337
0.353
0.354
0.368
0.356
0.361
0.354
0.348
0.337
0.32
0.303
0.292
0.273
0.249
0.228
0.202
0.184
0.148
0.124
0.088
0.06
0.02
-0.015
-0.052
-0.083
-0.118
-0.148
-0.175
-0.196
-0.217
-0.244
-0.248
-0.256
-0.249
-0.255
-0.252
-0.241
-0.187
-0.158
-0.192
-0.222
-0.247
-0.285
-0.316
-0.321
-0.318
-0.31
-0.297
-0.269
-0.254
-0.254
-0.237
-0.21
-0.193
-0.169
-0.163
-0.129
-0.133
-0.136
-0.134
-0.132
-0.128
-0.124
-0.113
-0.113
-0.107
-0.106
-0.098
-0.097
-0.077
-0.054
-0.027
-0.018
-0.001
-0.002
0.001
0.008
0.034
0.059
0.057
0.046
0.019
0
-0.018
-0.016
-0.046
-0.063
-0.076
-0.083
-0.096
-0.104
-0.105
-0.11
-0.113
-0.112
-0.106
-0.106
-0.099
-0.103
-0.096
-0.09
-0.082
-0.083
-0.076
-0.072
-0.068
-0.063
-0.07
-0.066
-0.026
0.093
0.178
0.354
0.507
0.6
0.727
0.65
0.219
-0.267
-0.805
-1.142
-1.208
-1.042
-0.832
-0.592
-0.291
-0.053
0.076
0.139
0.184
0.199
0.218
0.23
0.241
0.239
0.249
0.261
0.266
0.27
0.274
0.285
0.287
0.296
0.296
0.31
0.315
0.324
0.323
0.333
0.34
0.355
0.351
0.358
0.365
0.37
0.379
0.383
0.396
0.394
0.395
0.383
0.385
0.376
0.366
0.341
0.328
0.309
0.295
0.26
0.243
0.221
0.19
0.159
0.13
0.108
0.071
0.042
0.001
-0.023
-0.054
-0.082
-0.117
-0.138
-0.164
-0.176
-0.192
-0.205
-0.214
-0.221
-0.23
-0.24
-0.234
-0.237
-0.237
-0.245
-0.241
-0.241
-0.237
-0.243
-0.235
-0.232
-0.222
-0.221
-0.216
-0.21
-0.205
-0.194
-0.192
-0.175
-0.171
-0.162
-0.166
-0.16
-0.155
-0.144
-0.147
-0.132
-0.129
-0.124
-0.125
-0.123
-0.114
-0.11
-0.096
-0.092
-0.066
-0.054
-0.032
-0.03
-0.027
-0.027
-0.021
-0.008
0.017
0.022
0.006
-0.006
-0.034
-0.051
-0.058
-0.072
-0.099
-0.119
-0.13
-0.129
-0.147
-0.149
-0.157
-0.159
-0.157
-0.151
-0.147
-0.146
-0.146
-0.146
-0.135
-0.137
-0.126
-0.129
-0.111
-0.114
-0.103
-0.107
-0.107
-0.085
-0.006
0.104
0.231
0.414
0.515
0.644
0.671
0.381
-0.142
-0.638
-1.119
-1.253
-1.166
-0.94
-0.738
-0.437
-0.162
-0.002
0.077
0.127
0.162
0.175
0.196
0.202
0.213
0.218
0.234
0.235
0.236
0.239
0.255
0.264
0.266
0.269
0.275
0.291
0.296
0.303
0.307
0.322
0.327
0.327
0.334
0.349
0.35
0.354
0.355
0.363
0.369
0.374
0.37
0.367
0.367
0.352
0.334
0.315
0.306
0.28
0.257
0.232
0.215
0.185
0.162
0.131
0.102
0.066
0.033
0
-0.037
-0.063
-0.093
-0.121
-0.158
-0.171
-0.199
-0.213
-0.232
-0.232
-0.242
-0.249
-0.254
-0.257
-0.256
-0.26
-0.257
-0.259
-0.252
-0.247
-0.239
-0.239
-0.228
-0.225
-0.221
-0.217
-0.201
-0.19
-0.18
-0.172
-0.165
-0.154
-0.152
-0.143
-0.142
-0.132
-0.132
-0.124
-0.13
-0.116
-0.119
-0.11
-0.107
-0.095
-0.075
-0.051
-0.039
-0.023
-0.021
-0.025
-0.013
-0.005
0.026
0.022
0.013
-0.014
-0.032
-0.055
-0.058
-0.078
-0.104
-0.114
-0.123
-0.133
-0.14
-0.141
-0.153
-0.146
-0.152
-0.137
-0.145
-0.138
-0.138
-0.132
-0.13
-0.124
-0.118
-0.11
-0.104
-0.095
-0.091
-0.091
-0.097
-0.082
0.008
0.106
0.252
0.428
0.53
0.661
0.675
0.355
-0.162
-0.689
-1.134
-1.256
-1.13
-0.903
-0.672
-0.358
-0.103
0.037
0.108
0.156
0.171
0.192
0.204
0.213
0.216
0.228
0.234
0.237
0.248
0.249
0.265
0.27
0.276
0.277
0.289
0.296
0.312
0.312
0.323
0.333
0.339
0.342
0.354
0.375
0.378
0.388
0.394
0.404
0.404
0.405
0.396
0.402
0.393
0.384
0.363
0.352
0.334
0.315
0.293
0.271
0.254
0.223
0.196
0.162
0.143
0.109
0.076
0.041
0.012
-0.019
-0.047
-0.077
-0.105
-0.122
-0.15
-0.166
-0.178
-0.179
-0.191
-0.193
-0.203
-0.199
-0.205
-0.198
-0.21
-0.201
-0.196
-0.188
-0.189
-0.179
-0.171
-0.168
-0.167
-0.166
-0.151
-0.147
-0.137
-0.137
-0.123
-0.119
-0.115
-0.116
-0.113
-0.108
-0.096
-0.094
-0.094
-0.084
-0.083
-0.074
-0.073
-0.051
-0.028
0
0.012
0.017
0.008
0.017
0.021
0.052
0.057
0.05
0.033
0.007
-0.017
-0.029
-0.04
-0.067
-0.082
-0.094
-0.097
-0.118
-0.124
-0.134
-0.14
-0.141
-0.134
-0.128
-0.127
-0.121
-0.119
-0.111
-0.113
-0.101
-0.096
-0.085
-0.083
-0.073
-0.075
-0.078
-0.077
-0.027
0.083
0.177
0.361
0.489
0.622
0.748
0.576
0.098
-0.386
-0.939
-1.154
-1.138
-0.937
-0.745
-0.477
-0.193
-0.004
0.097
0.15
0.178
0.191
0.211
0.221
0.237
0.24
0.253
0.258
0.266
0.263
0.272
0.281
0.287
0.285
0.295
0.308
0.316
0.321
0.323
0.34
0.343
0.352
0.352
0.367
0.372
0.382
0.383
0.389
0.39
0.395
0.395
0.389
0.389
0.376
0.367
0.347
0.338
0.315
0.3
0.271
0.254
0.23
0.207
0.177
0.148
0.124
0.092
0.057
0.025
0.001
-0.031
-0.055
-0.084
-0.101
-0.128
-0.156
-0.181
-0.19
-0.198
-0.205
-0.216
-0.225
-0.223
-0.225
-0.223
-0.224
-0.215
-0.212
-0.203
-0.204
-0.185
-0.179
-0.168
-0.168
-0.16
-0.153
-0.146
-0.141
-0.137
-0.129
-0.128
-0.118
-0.119
-0.112
-0.11
-0.104
-0.109
-0.097
-0.099
-0.094
-0.101
-0.101
-0.102
-0.098
-0.098
-0.099
-0.091
-0.095
-0.09
-0.09
-0.075
-0.074
-0.044
-0.025
-0.006
-0.001
0.005
0.007
0.011
0.034
0.047
0.047
0.041
0.02
-0.008
-0.006
-0.029
-0.044
-0.078
-0.077
-0.084
-0.085
-0.094
-0.097
-0.101
-0.095
-0.086
-0.085
-0.086
-0.087
-0.08
-0.083
-0.073
-0.074
-0.065
-0.065
-0.059
-0.06
-0.053
-0.058
-0.053
-0.011
0.089
0.177
0.347
0.472
0.59
0.739
0.568
0.103
-0.375
-0.908
-1.139
-1.125
-0.943
-0.758
-0.519
-0.234
-0.025
0.077
0.14
0.17
0.185
0.196
0.216
0.216
0.227
0.228
0.243
0.245
0.242
0.247
0.258
0.261
0.258
0.267
0.276
0.291
0.29
0.297
0.3
0.318
0.317
0.323
0.331
0.346
0.352
0.35
0.352
0.356
0.361
0.358
0.36
0.353
0.348
0.327
0.317
0.299
0.289
0.26
0.244
0.224
0.203
0.176
0.151
0.129
0.102
0.079
0.043
0.015
-0.017
-0.039
-0.074
-0.095
-0.121
-0.138
-0.16
-0.175
-0.188
-0.199
-0.204
-0.211
-0.213
-0.218
-0.215
-0.218
-0.215
-0.217
-0.201
-0.21
-0.205
-0.199
-0.191
-0.191
-0.18
-0.177
-0.163
-0.156
-0.153
-0.146
-0.143
-0.13
-0.129
-0.121
-0.12
-0.107
-0.117
-0.105
-0.109
-0.105
-0.107
-0.108
-0.107
-0.105
-0.103
-0.106
-0.104
-0.104
-0.103
-0.108
-0.107
-0.109
-0.105
-0.11
-0.106
-0.105
-0.104
-0.104
-0.099
-0.094
-0.092
-0.086
-0.084
-0.076
-0.082
-0.073
-0.08
-0.07
-0.069
-0.06
-0.059
-0.028
0.002
0.023
0.033
0.037
0.036
0.044
0.064
0.075
0.077
0.062
0.042
0.019
0.014
-0.014
-0.036
-0.06
-0.064
-0.069
-0.078
-0.081
-0.086
-0.088
-0.088
-0.081
-0.085
-0.081
-0.083
-0.073
-0.079
-0.072
-0.071
-0.065
-0.062
-0.058
-0.056
-0.06
-0.053
-0.014
0.091
0.16
0.34
0.474
0.595
0.742
0.621
0.167
-0.303
-0.848
-1.108
-1.117
-0.95
-0.77
-0.562
-0.28
-0.051
0.066
0.122
0.162
0.169
0.188
0.196
0.204
0.201
0.212
0.221
0.221
0.225
0.228
0.241
0.245
0.248
0.255
0.268
0.275
0.282
0.279
0.294
0.3
0.307
0.303
0.318
0.329
0.331
0.331
0.336
0.349
0.35
0.35
0.342
0.346
0.334
0.324
0.302
0.293
0.276
0.256
0.23
0.212
0.198
0.173
0.148
0.12
0.102
0.066
0.042
0.004
-0.014
-0.046
-0.077
-0.107
-0.128
-0.147
-0.17
-0.184
-0.195
-0.206
-0.218
-0.225
-0.23
-0.233
-0.24
-0.238
-0.243
-0.237
-0.24
-0.23
-0.229
-0.224
-0.218
-0.211
-0.204
-0.194
-0.184
-0.177
-0.167
-0.167
-0.158
-0.153
-0.149
-0.152
-0.138
-0.138
-0.135
-0.133
-0.134
-0.135
-0.13
-0.126
-0.128
-0.125
-0.125
-0.121
-0.123
-0.114
-0.115
-0.114
-0.12
-0.115
-0.119
-0.112
-0.114
-0.109
-0.105
-0.105
-0.102
-0.101
-0.092
-0.092
-0.087
-0.092
-0.086
-0.087
-0.083
-0.088
-0.082
-0.081
-0.078
-0.076
-0.068
-0.06
-0.054
-0.029
0.002
0.021
0.034
0.044
0.041
0.054
0.069
0.084
0.074
0.067
0.04
0.027
0.02
-0.002
-0.024
-0.038
-0.044
-0.053
-0.057
-0.073
-0.072
-0.076
-0.074
-0.071
-0.069
-0.07
-0.065
-0.063
-0.061
-0.058
-0.054
-0.041
-0.04
-0.038
-0.04
-0.043
-0.036
0.027
0.115
0.215
0.39
0.506
0.648
0.733
0.501
0.022
-0.476
-0.971
-1.123
-1.069
-0.872
-0.704
-0.444
-0.178
0.01
0.098
0.148
0.171
0.186
0.21
0.214
0.217
0.224
0.237
0.245
0.246
0.244
0.261
0.266
0.271
0.27
0.283
0.288
0.293
0.291
0.304
0.317
0.321
0.326
0.327
0.344
0.353
0.36
0.358
0.367
0.368
0.368
0.361
0.364
0.356
0.345
0.332
0.316
0.302
0.283
0.26
0.236
0.228
0.204
0.183
0.15
0.127
0.095
0.066
0.035
0.006
-0.025
-0.054
-0.083
-0.113
-0.131
-0.151
-0.169
-0.191
-0.192
-0.205
-0.217
-0.228
-0.229
-0.237
-0.237
-0.241
-0.238
-0.235
-0.233
-0.23
-0.229
-0.217
-0.209
-0.2
-0.197
-0.185
-0.184
-0.173
-0.17
-0.155
-0.151
-0.143
-0.139
-0.137
-0.128
-0.121
-0.113
-0.116
-0.11
-0.11
-0.107
-0.111
-0.103
-0.104
-0.103
-0.108
-0.103
-0.105
-0.105
-0.106
-0.108
-0.104
-0.103
-0.104
-0.106
-0.095
-0.097
-0.093
-0.091
-0.084
-0.086
-0.078
-0.08
-0.073
-0.071
-0.066
-0.065
-0.067
-0.06
-0.062
-0.052
-0.056
-0.048
-0.051
-0.042
-0.044
-0.039
-0.041
-0.034
-0.033
-0.03
-0.018
-0.008
0.023
0.048
0.067
0.079
0.072
0.074
0.098
0.109
0.114
0.098
0.077
0.048
0.046
0.026
0.003
-0.019
-0.029
-0.031
-0.04
-0.042
-0.055
-0.058
-0.063
-0.054
-0.062
-0.058
-0.06
-0.057
-0.055
-0.047
-0.045
-0.047
-0.042
-0.039
-0.036
-0.047
-0.027
0.02
0.121
0.2
0.377
0.493
0.625
0.746
0.563
0.09
-0.397
-0.92
-1.119
-1.084
-0.897
-0.715
-0.482
-0.203
-0.012
0.09
0.14
0.164
0.177
0.196
0.211
0.213
0.223
0.235
0.25
0.246
0.251
0.256
0.271
0.272
0.279
0.279
0.294
0.305
0.307
0.308
0.321
0.331
0.331
0.337
0.35
0.369
0.367
0.373
0.374
0.389
0.387
0.384
0.377
0.377
0.371
0.357
0.341
0.332
0.314
0.288
0.266
0.243
0.227
0.198
0.176
0.143
0.127
0.093
0.063
0.026
0.002
-0.029
-0.062
-0.095
-0.121
-0.14
-0.161
-0.173
-0.185
-0.195
-0.205
-0.209
-0.224
-0.221
-0.231
-0.233
-0.241
-0.236
-0.236
-0.236
-0.229
-0.219
-0.21
-0.209
-0.198
-0.194
-0.179
-0.176
-0.166
-0.166
-0.149
-0.146
-0.144
-0.144
-0.137
-0.131
-0.126
-0.121
-0.119
-0.112
-0.114
-0.109
-0.108
-0.106
-0.108
-0.104
-0.111
-0.1
-0.102
-0.1
-0.102
-0.099
-0.097
-0.102
-0.099
-0.102
-0.093
-0.091
-0.09
-0.097
-0.093
-0.098
-0.09
-0.095
-0.091
-0.091
-0.088
-0.086
-0.08
-0.075
-0.072
-0.067
-0.065
-0.058
-0.059
-0.051
-0.056
-0.045
-0.04
-0.03
-0.021
0.015
0.036
0.049
0.057
0.052
0.065
0.081
0.097
0.096
0.09
0.064
0.048
0.032
0.014
-0.011
-0.03
-0.038
-0.038
-0.045
-0.057
-0.066
-0.068
-0.067
-0.068
-0.053
-0.059
-0.06
-0.058
-0.052
-0.054
-0.046
-0.042
-0.033
-0.035
-0.039
-0.045
-0.031
0.04
0.131
0.25
0.424
0.539
0.682
0.737
0.462
-0.016
-0.531
-1.002
-1.125
-1.04
-0.847
-0.661
-0.401
-0.137
0.034
0.112
0.16
0.178
0.201
0.209
0.225
0.221
0.234
0.242
0.248
0.243
0.242
0.255
0.257
0.261
0.261
0.276
0.284
0.296
0.295
0.305
0.315
0.324
0.323
0.331
0.338
0.349
0.347
0.352
0.368
0.372
0.371
0.367
0.37
0.365
0.361
0.339
0.33
0.311
0.296
0.265
0.249
0.232
0.21
0.186
0.156
0.133
0.109
0.078
0.043
0.016
-0.02
-0.045
-0.083
-0.103
-0.131
-0.151
-0.175
-0.192
-0.203
-0.212
-0.229
-0.239
-0.231
-0.239
-0.238
-0.25
-0.244
-0.25
-0.242
-0.245
-0.236
-0.232
-0.224
-0.225
-0.218
-0.209
-0.201
-0.193
-0.191
-0.177
-0.174
-0.163
-0.162
-0.155
-0.152
-0.143
-0.14
-0.14
-0.137
-0.128
-0.124
-0.124
-0.119
-0.121
-0.112
-0.117
-0.111
-0.114
-0.105
-0.112
-0.104
-0.109
-0.103
-0.104
-0.106
-0.105
-0.1
-0.103
-0.1
-0.09
-0.087
-0.076
-0.084
-0.077
-0.08
-0.075
-0.074
-0.069
-0.07
-0.063
-0.063
-0.049
-0.05
-0.046
-0.045
-0.037
-0.003
0.022
0.043
0.054
0.05
0.054
0.077
0.094
0.097
0.089
0.067
0.047
0.038
0.025
-0.003
-0.021
-0.032
-0.033
-0.045
-0.047
-0.057
-0.059
-0.063
-0.057
-0.062
-0.059
-0.06
-0.054
-0.053
-0.048
-0.043
-0.039
-0.035
-0.036
-0.03
-0.045
-0.015
0.059
0.149
0.289
0.455
0.559
0.732
0.709
0.349
-0.135
-0.673
-1.064
-1.133
-1.003
-0.812
-0.613
-0.344
-0.089
0.042
0.114
0.148
0.168
0.185
0.203
0.209
0.207
0.225
0.234
0.242
0.236
0.248
0.251
0.259
0.257
0.264
0.275
0.28
0.282
0.292
0.303
0.312
0.32
0.321
0.339
0.343
0.354
0.351
0.359
0.365
0.373
0.362
0.363
0.368
0.365
0.351
0.338
0.327
0.312
0.296
0.271
0.255
0.234
0.214
0.179
0.154
0.125
0.107
0.073
0.036
0.007
-0.024
-0.049
-0.081
-0.111
-0.131
-0.15
-0.175
-0.187
-0.199
-0.203
-0.222
-0.223
-0.228
-0.23
-0.238
-0.239
-0.234
-0.233
-0.231
-0.23
-0.224
-0.22
-0.21
-0.21
-0.197
-0.197
-0.186
-0.188
-0.179
-0.174
-0.167
-0.163
-0.158
-0.153
-0.148
-0.141
-0.139
-0.137
-0.132
-0.128
-0.135
-0.126
-0.124
-0.122
-0.129
-0.125
-0.123
-0.117
-0.118
-0.117
-0.115
-0.113
-0.108
-0.115
-0.108
-0.112
-0.11
-0.113
-0.107
-0.105
-0.1
-0.095
-0.095
-0.098
-0.09
-0.087
-0.083
-0.083
-0.078
-0.077
-0.075
-0.069
-0.067
-0.057
-0.047
-0.018
0.009
0.034
0.04
0.04
0.056
0.074
0.095
0.093
0.084
0.062
0.055
0.037
0.018
-0.015
-0.028
-0.036
-0.04
-0.045
-0.05
-0.058
-0.058
-0.059
-0.057
-0.052
-0.059
-0.056
-0.057
-0.049
-0.05
-0.043
-0.045
-0.036
-0.041
-0.041
-0.052
-0.027
0.055
0.142
0.299
0.459
0.558
0.73
0.687
0.314
-0.154
-0.695
-1.06
-1.122
-0.979
-0.796
-0.596
-0.325
-0.084
0.047
0.114
0.158
0.172
0.186
0.2
0.211
0.207
0.223
0.228
0.239
0.231
0.24
0.248
0.261
0.257
0.258
0.271
0.284
0.289
0.287
0.301
0.312
0.323
0.32
0.335
0.343
0.354
0.348
0.355
0.365
0.367
0.365
0.363
0.368
0.366
0.352
0.334
0.328
0.314
0.298
0.273
0.258
0.236
0.217
0.185
0.161
0.135
0.108
0.077
0.04
0.017
-0.015
-0.048
-0.082
-0.106
-0.133
-0.151
-0.174
-0.186
-0.199
-0.208
-0.223
-0.234
-0.238
-0.24
-0.242
-0.243
-0.239
-0.236
-0.232
-0.233
-0.225
-0.223
-0.208
-0.208
-0.201
-0.195
-0.184
-0.184
-0.177
-0.166
-0.156
-0.149
-0.152
-0.142
-0.14
-0.129
-0.135
-0.126
-0.128
-0.123
-0.126
-0.121
-0.117
-0.115
-0.114
-0.113
-0.109
-0.111
-0.106
-0.115
-0.11
-0.11
-0.105
-0.105
-0.101
-0.103
-0.094
-0.097
-0.094
-0.087
-0.079
-0.081
-0.079
-0.072
-0.068
-0.061
-0.066
-0.056
-0.054
-0.05
-0.054
-0.047
-0.048
-0.038
-0.031
-0.014
0.015
0.036
0.059
0.056
0.06
0.081
0.103
0.107
0.104
0.081
0.058
0.049
0.026
0.002
-0.022
-0.029
-0.037
-0.037
-0.048
-0.053
-0.059
-0.055
-0.057
-0.052
-0.056
-0.049
-0.051
-0.041
-0.038
-0.035
-0.03
-0.027
-0.022
-0.027
-0.036
-0.023
0.036
0.131
0.242
0.412
0.531
0.684
0.765
0.495
0.022
-0.478
-0.974
-1.101
-1.027
-0.838
-0.663
-0.406
-0.14
0.035
0.109
0.159
0.176
0.198
0.212
0.228
0.224
0.229
0.246
0.258
0.255
0.251
0.258
0.27
0.276
0.272
0.281
0.291
0.297
0.293
0.304
0.315
0.328
0.327
0.334
0.343
0.351
0.364
0.364
0.376
0.383
0.388
0.379
0.387
0.381
0.374
0.353
0.343
0.327
0.31
0.288
0.265
0.243
0.223
0.2
0.169
0.148
0.117
0.095
0.051
0.021
-0.009
-0.038
-0.077
-0.102
-0.124
-0.143
-0.168
-0.189
-0.193
-0.208
-0.215
-0.229
-0.233
-0.235
-0.234
-0.249
-0.243
-0.239
-0.234
-0.236
-0.23
-0.22
-0.212
-0.207
-0.199
-0.191
-0.184
-0.177
-0.174
-0.171
-0.168
-0.158
-0.162
-0.152
-0.15
-0.145
-0.144
-0.146
-0.142
-0.139
-0.136
-0.132
-0.124
-0.126
-0.119
-0.122
-0.118
-0.12
-0.117
-0.118
-0.116
-0.115
-0.115
-0.117
-0.114
-0.11
-0.106
-0.103
-0.113
-0.112
-0.12
-0.11
-0.103
-0.096
-0.094
-0.086
-0.088
-0.082
-0.079
-0.08
-0.083
-0.077
-0.073
-0.067
-0.06
-0.048
-0.01
0.009
0.035
0.032
0.042
0.061
0.07
0.08
0.091
0.077
0.049
0.072
0.086
0.063
-0.001
-0.079
-0.1
-0.082
-0.088
-0.105
-0.101
-0.091
-0.101
-0.093
-0.083
-0.088
-0.08
-0.066
-0.028
0.002
0.024
0.029
0.011
-0.038
-0.054
-0.07
-0.029
0.056
0.177
0.365
0.482
0.636
0.742
0.497
0.021
-0.424
-0.873
-1
-0.98
-0.805
-0.678
-0.389
-0.15
-0.009
0.001
0.025
0.051
0.098
0.12
0.141
0.129
0.148
0.207
0.231
0.216
0.223
0.257
0.284
0.29
0.28
0.292
0.268
0.309
0.4
0.544
0.497
0.354
0.197
0.174
0.217
0.232
0.257
0.27
0.309
0.313
0.328
0.324
0.333
0.354
0.341
0.343
0.36
0.348
0.357
0.31
0.274
0.287
0.274
0.162
0.052
0.029
0.042
0.037
0.02
0.019
-0.01
-0.034
-0.053
-0.086
-0.09
-0.088
-0.064
-0.051
-0.04
-0.167
-0.259
-0.35
-0.364
-0.316
-0.277
-0.247
-0.271
-0.236
-0.215
-0.208
-0.214
-0.213
-0.213
-0.186
-0.181
-0.174
-0.169
-0.158
-0.15
-0.137
-0.137
-0.127
-0.111
-0.13
-0.146
-0.14
-0.125
-0.109
-0.095
-0.098
-0.071
-0.064
-0.072
-0.088
-0.07
-0.09
-0.13
-0.144
-0.135
-0.111
-0.101
-0.065
-0.072
-0.115
-0.138
-0.113
-0.102
-0.09
-0.084
-0.075
-0.072
-0.067
-0.072
-0.061
-0.053
-0.061
-0.081
-0.087
-0.067
-0.052
-0.018
0.001
0.025
0.028
0.034
0.043
0.056
0.069
0.077
0.07
0.033
0.021
0.011
-0.005
-0.048
-0.077
-0.075
-0.065
-0.074
-0.086
-0.095
-0.09
-0.088
-0.089
-0.094
-0.084
-0.078
-0.078
-0.07
-0.066
-0.058
-0.059
-0.056
-0.053
-0.045
-0.048
-0.018
0.065
0.166
0.319
0.466
0.582
0.772
0.69
0.264
-0.202
-0.749
-1.049
-1.067
-0.913
-0.741
-0.542
-0.285
-0.053
0.054
0.127
0.158
0.174
0.184
0.198
0.216
0.211
0.216
0.224
0.238
0.237
0.241
0.249
0.262
0.252
0.254
0.257
0.27
0.279
0.277
0.285
0.303
0.318
0.316
0.323
0.326
0.338
0.338
0.346
0.346
0.354
0.359
0.366
0.368
0.365
0.352
0.338
0.323
0.31
0.3
0.277
0.253
0.225
0.207
0.182
0.16
0.121
0.098
0.062
0.032
-0.001
-0.036
-0.065
-0.1
-0.124
-0.143
-0.158
-0.184
-0.197
-0.212
-0.214
-0.225
-0.224
-0.232
-0.239
-0.245
-0.245
-0.243
-0.235
-0.221
-0.229
-0.22
-0.213
-0.204
-0.202
-0.196
-0.193
-0.186
-0.18
-0.174
-0.171
-0.159
-0.15
-0.144
-0.135
-0.128
-0.126
-0.133
-0.127
-0.113
-0.11
-0.118
-0.099
-0.113
-0.101
-0.095
-0.098
-0.106
-0.101
-0.101
-0.097
-0.081
-0.091
-0.088
-0.101
-0.084
-0.08
-0.074
-0.063
-0.042
-0.029
-0.011
-0.014
-0.008
0.016
0.035
0.06
0.06
0.052
0.026
0.019
-0.005
-0.021
-0.063
-0.081
-0.075
-0.078
-0.082
-0.084
-0.088
-0.093
-0.085
-0.08
-0.083
-0.081
-0.075
-0.075
-0.059
-0.061
-0.053
-0.053
-0.042
-0.045
-0.047
-0.043
0
0.111
0.225
0.381
0.538
0.646
0.795
0.644
0.209
-0.233
-0.755
-1.033
-1.039
-0.944
-0.817
-0.671
-0.446
-0.205
-0.013
0.09
0.148
0.172
0.185
0.193
0.21
0.21
0.222
0.223
0.235
0.234
0.236
0.246
0.255
0.263
0.262
0.266
0.275
0.284
0.281
0.29
0.295
0.308
0.311
0.317
0.322
0.337
0.342
0.348
0.35
0.364
0.363
0.358
0.363
0.359
0.349
0.333
0.323
0.305
0.294
0.269
0.252
0.229
0.216
0.185
0.152
0.128
0.106
0.074
0.038
0.004
-0.026
-0.052
-0.085
-0.111
-0.139
-0.15
-0.177
-0.192
-0.203
-0.209
-0.223
-0.228
-0.235
-0.234
-0.233
-0.233
-0.229
-0.227
-0.215
-0.213
-0.212
-0.213
-0.197
-0.195
-0.19
-0.19
-0.183
-0.171
-0.17
-0.161
-0.157
-0.143
-0.148
-0.141
-0.142
-0.135
-0.137
-0.13
-0.127
-0.12
-0.118
-0.116
-0.113
-0.114
-0.108
-0.107
-0.111
-0.107
-0.095
-0.093
-0.089
-0.071
-0.04
-0.034
-0.015
-0.014
-0.005
0.004
0.033
0.058
0.063
0.046
0.024
-0.001
-0.005
-0.02
-0.045
-0.07
-0.083
-0.08
-0.088
-0.093
-0.099
-0.101
-0.108
-0.107
-0.101
-0.102
-0.101
-0.097
-0.097
-0.1
-0.086
-0.086
-0.079
-0.079
-0.072
-0.077
-0.065
-0.014
0.101
0.196
0.357
0.498
0.597
0.737
0.568
0.108
-0.358
-0.895
-1.169
-1.156
-1.031
-0.856
-0.663
-0.387
-0.138
0.019
0.101
0.144
0.168
0.182
0.198
0.205
0.219
0.224
0.238
0.238
0.243
0.251
0.256
0.263
0.267
0.271
0.277
0.291
0.299
0.309
0.315
0.327
0.328
0.342
0.345
0.361
0.362
0.371
0.37
0.379
0.387
0.389
0.386
0.383
0.38
0.369
0.346
0.334
0.322
0.304
0.289
0.26
0.238
0.209
0.183
0.153
0.12
0.086
0.053
0.019
-0.015
-0.044
-0.072
-0.097
-0.127
-0.141
-0.165
-0.178
-0.191
-0.199
-0.207
-0.213
-0.214
-0.219
-0.224
-0.224
-0.224
-0.227
-0.217
-0.221
-0.211
-0.211
-0.202
-0.203
-0.192
-0.186
-0.176
-0.17
-0.162
-0.155
-0.154
-0.143
-0.137
-0.13
-0.125
-0.116
-0.119
-0.116
-0.114
-0.106
-0.109
-0.108
-0.111
-0.105
-0.099
-0.099
-0.096
-0.09
-0.079
-0.054
-0.03
-0.016
-0.007
-0.013
-0.001
0.006
0.036
0.047
0.046
0.031
-0.002
-0.027
-0.034
-0.044
-0.073
-0.092
-0.1
-0.098
-0.111
-0.117
-0.13
-0.13
-0.133
-0.13
-0.131
-0.133
-0.125
-0.123
-0.115
-0.111
-0.104
-0.1
-0.088
-0.092
-0.084
-0.091
-0.087
-0.053
0.053
0.14
0.313
0.467
0.546
0.673
0.605
0.19
-0.3
-0.833
-1.206
-1.265
-1.095
-0.877
-0.629
-0.316
-0.077
0.049
0.12
0.163
0.189
0.204
0.223
0.227
0.238
0.247
0.262
0.256
0.269
0.273
0.281
0.288
0.291
0.292
0.303
0.308
0.318
0.321
0.332
0.342
0.345
0.354
0.358
0.372
0.376
0.38
0.386
0.398
0.399
0.398
0.393
0.391
0.387
0.375
0.359
0.341
0.325
0.3
0.277
0.252
0.232
0.201
0.178
0.142
0.116
0.081
0.046
0.015
-0.018
-0.051
-0.082
-0.107
-0.134
-0.15
-0.168
-0.177
-0.197
-0.202
-0.215
-0.22
-0.229
-0.23
-0.233
-0.231
-0.234
-0.228
-0.225
-0.226
-0.227
-0.223
-0.212
-0.207
-0.196
-0.193
-0.189
-0.179
-0.168
-0.163
-0.153
-0.149
-0.145
-0.137
-0.129
-0.117
-0.123
-0.114
-0.112
-0.107
-0.11
-0.106
-0.109
-0.102
-0.105
-0.104
-0.101
-0.099
-0.099
-0.102
-0.104
-0.103
-0.096
-0.101
-0.096
-0.096
-0.087
-0.073
-0.042
-0.03
-0.012
-0.008
-0.014
-0.008
0.021
0.039
0.039
0.033
0.008
-0.013
-0.018
-0.038
-0.065
-0.082
-0.09
-0.092
-0.102
-0.108
-0.113
-0.119
-0.117
-0.111
-0.113
-0.118
-0.107
-0.104
-0.095
-0.099
-0.091
-0.092
-0.079
-0.078
-0.078
-0.076
-0.08
-0.059
0.018
0.122
0.247
0.426
0.524
0.645
0.683
0.413
-0.105
-0.608
-1.084
-1.233
-1.133
-0.907
-0.692
-0.393
-0.125
0.026
0.11
0.157
0.181
0.199
0.222
0.224
0.231
0.237
0.251
0.253
0.26
0.259
0.269
0.274
0.273
0.28
0.286
0.297
0.292
0.301
0.304
0.323
0.324
0.333
0.335
0.347
0.351
0.358
0.36
0.376
0.383
0.386
0.38
0.381
0.389
0.375
0.366
0.351
0.335
0.311
0.294
0.27
0.249
0.222
0.198
0.166
0.14
0.109
0.075
0.042
0.005
-0.019
-0.055
-0.087
-0.117
-0.134
-0.163
-0.182
-0.204
-0.215
-0.228
-0.242
-0.246
-0.254
-0.252
-0.254
-0.25
-0.253
-0.246
-0.247
-0.237
-0.236
-0.223
-0.219
-0.21
-0.209
-0.201
-0.192
-0.186
-0.178
-0.172
-0.16
-0.156
-0.153
-0.149
-0.141
-0.139
-0.128
-0.126
-0.115
-0.114
-0.113
-0.115
-0.115
-0.109
-0.107
-0.103
-0.106
-0.096
-0.099
-0.098
-0.099
-0.091
-0.097
-0.093
-0.096
-0.088
-0.089
-0.09
-0.091
-0.088
-0.08
-0.081
-0.077
-0.082
-0.071
-0.071
-0.066
-0.065
-0.063
-0.072
-0.065
-0.067
-0.06
-0.058
-0.058
-0.056
-0.058
-0.051
-0.055
-0.045
-0.047
-0.038
-0.03
0.003
0.016
0.039
0.036
0.032
0.039
0.057
0.067
0.068
0.066
0.042
0.027
0.022
0.009
-0.014
-0.026
-0.039
-0.04
-0.044
-0.046
-0.052
-0.054
-0.053
-0.056
-0.049
-0.047
-0.049
-0.044
-0.031
-0.034
-0.025
-0.017
-0.006
-0.009
-0.002
-0.002
-0.003
0.032
0.131
0.203
0.365
0.507
0.602
0.73
0.688
0.307
-0.19
-0.707
-1.061
-1.122
-0.964
-0.763
-0.549
-0.269
-0.032
0.097
0.16
0.19
0.215
0.229
0.25
0.254
0.26
0.265
0.284
0.284
0.288
0.289
0.303
0.304
0.304
0.309
0.32
0.334
0.334
0.341
0.342
0.353
0.35
0.352
0.352
0.365
0.369
0.368
0.371
0.383
0.386
0.388
0.387
0.388
0.387
0.371
0.364
0.351
0.342
0.318
0.296
0.272
0.259
0.234
0.209
0.185
0.162
0.129
0.095
0.062
0.033
0.007
-0.032
-0.056
-0.089
-0.105
-0.133
-0.156
-0.181
-0.191
-0.202
-0.219
-0.225
-0.228
-0.229
-0.238
-0.235
-0.238
-0.23
-0.23
-0.226
-0.226
-0.218
-0.217
-0.212
-0.206
-0.195
-0.191
-0.189
-0.185
-0.172
-0.159
-0.155
-0.151
-0.146
-0.139
-0.138
-0.129
-0.13
-0.125
-0.123
-0.119
-0.116
-0.113
-0.107
-0.108
-0.106
-0.105
-0.1
-0.1
-0.094
-0.097
-0.093
-0.091
-0.088
-0.093
-0.09
-0.091
-0.086
-0.088
-0.086
-0.084
-0.085
-0.083
-0.081
-0.074
-0.078
-0.07
-0.071
-0.063
-0.064
-0.067
-0.067
-0.064
-0.062
-0.06
-0.06
-0.058
-0.054
-0.053
-0.047
-0.045
-0.037
-0.039
-0.033
-0.037
-0.028
-0.03
-0.028
-0.03
-0.028
-0.025
-0.024
-0.025
-0.022
-0.017
-0.015
-0.009
-0.014
-0.009
-0.012
-0.008
-0.012
-0.004
-0.001
-0.001
0
0.005
0.005
0.009
0.014
0.025
0.049
0.063
0.083
0.086
0.085
0.096
0.12
0.127
0.124
0.117
0.1
0.081
0.071
0.053
0.029
0.019
0.013
0.005
-0.001
-0.004
-0.012
-0.015
-0.022
-0.014
-0.018
-0.015
-0.017
-0.012
-0.006
-0.004
0.006
0.005
0.006
0.004
0.004
-0.005
0.02
0.088
0.18
0.289
0.449
0.544
0.681
0.722
0.483
-0.012
-0.506
-0.96
-1.099
-1.021
-0.826
-0.645
-0.395
-0.14
0.025
0.104
0.145
0.172
0.189
0.206
0.213
0.214
0.222
0.236
0.249
0.243
0.249
0.251
0.263
0.261
0.269
0.269
0.28
0.282
0.283
0.293
0.301
0.304
0.307
0.315
0.323
0.333
0.33
0.335
0.336
0.345
0.342
0.343
0.338
0.341
0.33
0.315
0.303
0.295
0.28
0.258
0.24
0.217
0.199
0.167
0.143
0.114
0.09
0.056
0.021
-0.016
-0.045
-0.075
-0.108
-0.133
-0.166
-0.185
-0.212
-0.231
-0.254
-0.263
-0.276
-0.282
-0.294
-0.293
-0.297
-0.297
-0.296
-0.293
-0.295
-0.297
-0.294
-0.294
-0.285
-0.283
-0.271
-0.269
-0.259
-0.253
-0.242
-0.237
-0.227
-0.22
-0.212
-0.202
-0.195
-0.189
-0.184
-0.172
-0.17
-0.162
-0.159
-0.154
-0.159
-0.153
-0.156
-0.147
-0.148
-0.143
-0.146
-0.142
-0.14
-0.136
-0.13
-0.135
-0.129
-0.13
-0.13
-0.135
-0.122
-0.127
-0.12
-0.121
-0.118
-0.119
-0.112
-0.109
-0.107
-0.105
-0.101
-0.095
-0.097
-0.092
-0.095
-0.088
-0.086
-0.082
-0.087
-0.078
-0.078
-0.072
-0.069
-0.066
-0.064
-0.064
-0.057
-0.058
-0.053
-0.055
-0.049
-0.049
-0.043
-0.043
-0.036
-0.035
-0.027
-0.024
-0.022
-0.017
-0.014
-0.008
-0.009
-0.003
-0.004
0.002
0
0.007
0
0.005
0.007
0.014
0.012
0.019
0.018
0.023
0.026
0.028
0.039
0.054
0.075
0.088
0.11
0.107
0.111
0.128
0.147
0.146
0.152
0.135
0.115
0.102
0.077
0.057
0.036
0.032
0.023
0.023
0.012
0.006
0.001
0.002
-0.001
-0.002
-0.006
-0.006
0
0.002
0.006
0.01
0.017
0.013
0.019
0.016
0.013
0.019
0.073
0.169
0.258
0.418
0.535
0.67
0.77
0.628
0.162
-0.312
-0.823
-1.04
-1.036
-0.855
-0.687
-0.464
-0.205
-0.004
0.1
0.157
0.183
0.201
0.217
0.23
0.236
0.236
0.247
0.256
0.257
0.245
0.259
0.267
0.272
0.268
0.277
0.283
0.292
0.293
0.297
0.306
0.312
0.319
0.321
0.336
0.341
0.346
0.342
0.359
0.368
0.373
0.366
0.37
0.37
0.367
0.356
0.344
0.337
0.323
0.304
0.283
0.269
0.247
0.23
0.194
0.177
0.147
0.123
0.084
0.048
0.016
-0.014
-0.044
-0.08
-0.109
-0.134
-0.16
-0.184
-0.204
-0.224
-0.232
-0.249
-0.256
-0.258
-0.263
-0.267
-0.273
-0.273
-0.272
-0.269
-0.269
-0.26
-0.255
-0.246
-0.247
-0.241
-0.23
-0.219
-0.219
-0.207
-0.198
-0.19
-0.183
-0.178
-0.17
-0.164
-0.158
-0.154
-0.144
-0.145
-0.14
-0.137
-0.127
-0.126
-0.115
-0.114
-0.109
-0.108
-0.103
-0.103
-0.104
-0.103
-0.108
-0.105
-0.104
-0.098
-0.102
-0.095
-0.1
-0.093
-0.093
-0.086
-0.089
-0.088
-0.084
-0.084
-0.081
-0.077
-0.071
-0.071
-0.065
-0.071
-0.069
-0.074
-0.064
-0.066
-0.055
-0.053
-0.05
-0.05
-0.049
-0.044
-0.043
-0.038
-0.038
-0.035
-0.035
-0.022
-0.029
-0.025
-0.023
-0.021
-0.025
-0.016
-0.015
-0.008
-0.006
-0.006
-0.002
0.002
0.006
0.003
0.009
0.01
0.013
0.011
0.015
0.014
0.024
0.018
0.022
0.02
0.022
0.025
0.028
0.031
0.041
0.059
0.068
0.09
0.094
0.094
0.111
0.135
0.141
0.142
0.142
0.119
0.101
0.082
0.061
0.039
0.018
0.014
0.011
0.003
-0.003
-0.013
-0.017
-0.02
-0.017
-0.018
-0.022
-0.021
-0.019
-0.016
-0.012
-0.001
0
0
-0.007
-0.002
0.003
0.047
0.142
0.226
0.383
0.53
0.64
0.784
0.687
0.291
-0.143
-0.664
-0.982
-0.998
-0.9
-0.758
-0.611
-0.396
-0.172
0.003
0.102
0.144
0.173
0.185
0.201
0.214
0.214
0.217
0.226
0.239
0.24
0.246
0.246
0.255
0.254
0.257
0.26
0.275
0.275
0.278
0.284
0.284
0.291
0.296
0.298
0.307
0.318
0.32
0.323
0.329
0.341
0.34
0.346
0.343
0.349
0.344
0.336
0.324
0.312
0.304
0.281
0.266
0.246
0.231
0.201
0.177
0.148
0.129
0.095
0.064
0.028
-0.005
-0.037
-0.067
-0.097
-0.125
-0.142
-0.169
-0.186
-0.205
-0.224
-0.24
-0.241
-0.251
-0.251
-0.257
-0.262
-0.264
-0.262
-0.259
-0.259
-0.257
-0.254
-0.243
-0.244
-0.237
-0.233
-0.223
-0.225
-0.214
-0.209
-0.199
-0.197
-0.189
-0.188
-0.18
-0.172
-0.169
-0.163
-0.16
-0.149
-0.151
-0.145
-0.143
-0.137
-0.136
-0.129
-0.132
-0.128
-0.128
-0.128
-0.126
-0.124
-0.118
-0.118
-0.109
-0.113
-0.107
-0.109
-0.103
-0.106
-0.103
-0.105
-0.1
-0.105
-0.101
-0.102
-0.094
-0.093
-0.093
-0.085
-0.087
-0.08
-0.08
-0.073
-0.077
-0.066
-0.068
-0.067
-0.065
-0.062
-0.059
-0.06
-0.049
-0.048
-0.046
-0.043
-0.038
-0.037
-0.032
-0.034
-0.028
-0.032
-0.029
-0.026
-0.019
-0.016
-0.011
-0.002
-0.002
0.009
0.027
0.049
0.06
0.076
0.074
0.086
0.103
0.122
0.118
0.108
0.085
0.061
0.056
0.046
0.025
0
-0.007
-0.014
-0.017
-0.026
-0.028
-0.039
-0.038
-0.04
-0.039
-0.039
-0.037
-0.038
-0.035
-0.031
-0.031
-0.023
-0.022
-0.018
-0.022
-0.024
-0.007
0.066
0.163
0.271
0.443
0.557
0.697
0.764
0.53
0.047
-0.44
-0.95
-1.11
-1.07
-0.905
-0.735
-0.522
-0.265
-0.046
0.071
0.137
0.173
0.19
0.204
0.219
0.225
0.228
0.234
0.241
0.245
0.243
0.251
0.256
0.265
0.261
0.27
0.275
0.282
0.279
0.284
0.296
0.302
0.303
0.308
0.319
0.324
0.336
0.336
0.347
0.356
0.368
0.365
0.369
0.368
0.367
0.356
0.346
0.34
0.327
0.308
0.285
0.266
0.243
0.224
0.193
0.167
0.136
0.108
0.069
0.035
-0.005
-0.038
-0.075
-0.106
-0.134
-0.159
-0.179
-0.206
-0.22
-0.239
-0.241
-0.258
-0.262
-0.271
-0.27
-0.277
-0.277
-0.278
-0.275
-0.272
-0.275
-0.272
-0.267
-0.255
-0.251
-0.244
-0.24
-0.227
-0.224
-0.214
-0.211
-0.2
-0.193
-0.191
-0.181
-0.173
-0.167
-0.165
-0.152
-0.149
-0.143
-0.145
-0.139
-0.137
-0.13
-0.136
-0.13
-0.128
-0.123
-0.121
-0.12
-0.114
-0.106
-0.101
-0.107
-0.102
-0.101
-0.093
-0.096
-0.089
-0.093
-0.085
-0.087
-0.081
-0.081
-0.076
-0.073
-0.074
-0.071
-0.07
-0.063
-0.066
-0.061
-0.063
-0.053
-0.055
-0.048
-0.051
-0.046
-0.046
-0.043
-0.038
-0.037
-0.034
-0.033
-0.028
-0.026
-0.022
-0.024
-0.018
-0.02
-0.015
-0.014
-0.007
-0.008
-0.004
0.001
0.004
0.006
0.012
0.021
0.027
0.043
0.068
0.084
0.09
0.096
0.094
0.113
0.125
0.127
0.115
0.104
0.08
0.064
0.058
0.038
0.02
0.009
0.007
-0.005
-0.006
-0.014
-0.017
-0.023
-0.02
-0.022
-0.015
-0.011
-0.013
-0.009
-0.007
0
0.003
0
0.001
0.011
0.002
0.007
0.063
0.18
0.254
0.43
0.557
0.673
0.769
0.665
0.223
-0.265
-0.786
-1.08
-1.109
-0.946
-0.748
-0.532
-0.256
-0.032
0.097
0.159
0.199
0.218
0.236
0.249
0.255
0.257
0.264
0.274
0.276
0.278
0.28
0.293
0.292
0.296
0.299
0.306
0.312
0.315
0.317
0.323
0.329
0.332
0.333
0.343
0.357
0.357
0.368
0.373
0.386
0.386
0.392
0.389
0.396
0.39
0.386
0.378
0.367
0.356
0.335
0.319
0.299
0.28
0.249
0.224
0.194
0.17
0.133
0.098
0.056
0.027
-0.007
-0.044
-0.076
-0.111
-0.135
-0.162
-0.185
-0.21
-0.226
-0.241
-0.25
-0.263
-0.265
-0.277
-0.279
-0.284
-0.283
-0.283
-0.285
-0.28
-0.281
-0.268
-0.268
-0.262
-0.258
-0.245
-0.246
-0.238
-0.232
-0.218
-0.214
-0.205
-0.2
-0.192
-0.186
-0.176
-0.175
-0.169
-0.158
-0.159
-0.148
-0.152
-0.144
-0.143
-0.138
-0.137
-0.134
-0.132
-0.127
-0.124
-0.121
-0.118
-0.116
-0.114
-0.118
-0.109
-0.113
-0.107
-0.113
-0.104
-0.107
-0.104
-0.107
-0.099
-0.095
-0.096
-0.095
-0.094
-0.085
-0.083
-0.08
-0.08
-0.075
-0.076
-0.071
-0.072
-0.066
-0.067
-0.064
-0.068
-0.064
-0.061
-0.058
-0.058
-0.055
-0.048
-0.05
-0.041
-0.043
-0.037
-0.04
-0.034
-0.036
-0.032
-0.026
-0.02
-0.019
-0.017
-0.016
-0.006
0.002
0
0.022
0.042
0.069
0.079
0.087
0.085
0.105
0.122
0.134
0.121
0.113
0.088
0.07
0.067
0.042
0.023
0.005
0.005
0
-0.002
-0.013
-0.02
-0.03
-0.025
-0.026
-0.025
-0.023
-0.023
-0.022
-0.017
-0.011
-0.013
-0.008
-0.006
0
-0.008
-0.008
0.018
0.12
0.2
0.358
0.514
0.616
0.746
0.73
0.396
-0.116
-0.621
-1.028
-1.119
-1.013
-0.813
-0.621
-0.344
-0.104
0.047
0.12
0.163
0.186
0.198
0.213
0.22
0.222
0.227
0.243
0.241
0.243
0.239
0.252
0.252
0.256
0.253
0.264
0.266
0.275
0.28
0.286
0.304
0.309
0.308
0.31
0.322
0.324
0.332
0.336
0.345
0.346
0.348
0.352
0.355
0.356
0.354
0.342
0.335
0.325
0.304
0.292
0.269
0.254
0.229
0.207
0.178
0.161
0.127
0.097
0.059
0.026
-0.004
-0.039
-0.072
-0.11
-0.136
-0.168
-0.187
-0.21
-0.223
-0.243
-0.248
-0.263
-0.27
-0.272
-0.274
-0.281
-0.278
-0.274
-0.274
-0.271
-0.27
-0.263
-0.262
-0.25
-0.248
-0.236
-0.231
-0.223
-0.219
-0.207
-0.2
-0.191
-0.185
-0.174
-0.164
-0.157
-0.146
-0.143
-0.132
-0.13
-0.12
-0.126
-0.117
-0.116
-0.109
-0.106
-0.097
-0.093
-0.088
-0.089
-0.087
-0.084
-0.084
-0.081
-0.08
-0.077
-0.08
-0.072
-0.076
-0.071
-0.071
-0.072
-0.071
-0.068
-0.065
-0.059
-0.053
-0.053
-0.048
-0.05
-0.046
-0.043
-0.038
-0.042
-0.039
-0.039
-0.032
-0.034
-0.03
-0.031
-0.027
-0.023
-0.022
-0.018
-0.022
-0.015
-0.019
-0.015
-0.021
-0.017
-0.02
-0.013
-0.012
-0.013
-0.015
-0.013
-0.008
-0.009
-0.004
-0.005
0.001
-0.003
0.005
0.008
0.015
0.022
0.041
0.061
0.081
0.091
0.094
0.099
0.121
0.134
0.138
0.13
0.116
0.095
0.078
0.066
0.04
0.022
0.008
0.004
-0.007
-0.009
-0.021
-0.031
-0.033
-0.03
-0.031
-0.036
-0.028
-0.032
-0.026
-0.028
-0.023
-0.023
-0.016
-0.016
-0.011
-0.022
-0.014
0.034
0.143
0.221
0.395
0.531
0.649
0.758
0.655
0.226
-0.262
-0.784
-1.063
-1.09
-0.922
-0.741
-0.53
-0.259
-0.04
0.08
0.145
0.177
0.2
0.218
0.232
0.23
0.241
0.244
0.259
0.255
0.256
0.262
0.268
0.274
0.277
0.28
0.287
0.3
0.299
0.304
0.308
0.325
0.325
0.333
0.335
0.348
0.355
0.359
0.363
0.373
0.379
0.38
0.383
0.387
0.387
0.379
0.371
0.358
0.35
0.329
0.312
0.292
0.276
0.249
0.222
0.194
0.167
0.139
0.103
0.071
0.033
0.003
-0.039
-0.071
-0.105
-0.129
-0.17
-0.191
-0.214
-0.226
-0.248
-0.265
-0.272
-0.277
-0.282
-0.291
-0.295
-0.296
-0.293
-0.297
-0.293
-0.292
-0.284
-0.282
-0.276
-0.271
-0.258
-0.251
-0.243
-0.239
-0.232
-0.22
-0.217
-0.204
-0.199
-0.191
-0.19
-0.18
-0.175
-0.168
-0.171
-0.162
-0.162
-0.157
-0.152
-0.146
-0.139
-0.137
-0.13
-0.135
-0.129
-0.13
-0.124
-0.131
-0.128
-0.129
-0.125
-0.129
-0.126
-0.123
-0.12
-0.116
-0.115
-0.11
-0.11
-0.102
-0.101
-0.099
-0.1
-0.094
-0.097
-0.093
-0.088
-0.083
-0.079
-0.078
-0.077
-0.074
-0.071
-0.068
-0.064
-0.064
-0.058
-0.06
-0.056
-0.059
-0.049
-0.05
-0.044
-0.043
-0.045
-0.041
-0.037
-0.039
-0.037
-0.022
-0.019
-0.012
-0.004
0.022
0.038
0.055
0.065
0.065
0.073
0.097
0.108
0.109
0.098
0.084
0.059
0.048
0.037
0.013
-0.001
-0.01
-0.008
-0.019
-0.025
-0.037
-0.041
-0.042
-0.037
-0.039
-0.042
-0.037
-0.033
-0.025
-0.028
-0.022
-0.019
-0.011
-0.013
-0.011
-0.025
-0.006
0.05
0.151
0.246
0.419
0.534
0.676
0.778
0.584
0.104
-0.389
-0.897
-1.092
-1.054
-0.872
-0.7
-0.484
-0.218
-0.014
0.089
0.144
0.176
0.193
0.206
0.22
0.223
0.231
0.238
0.248
0.247
0.251
0.254
0.269
0.266
0.268
0.271
0.281
0.292
0.296
0.297
0.303
0.313
0.313
0.318
0.322
0.336
0.338
0.34
0.344
0.361
0.36
0.363
0.364
0.368
0.37
0.36
0.355
0.343
0.332
0.308
0.291
0.27
0.257
0.232
0.212
0.182
0.158
0.129
0.098
0.062
0.029
-0.006
-0.04
-0.074
-0.108
-0.128
-0.162
-0.177
-0.201
-0.218
-0.239
-0.248
-0.258
-0.259
-0.262
-0.266
-0.267
-0.265
-0.261
-0.265
-0.268
-0.26
-0.256
-0.262
-0.254
-0.247
-0.232
-0.231
-0.219
-0.217
-0.205
-0.197
-0.189
-0.181
-0.177
-0.164
-0.162
-0.152
-0.147
-0.142
-0.143
-0.135
-0.132
-0.125
-0.125
-0.123
-0.119
-0.121
-0.117
-0.114
-0.111
-0.113
-0.108
-0.111
-0.109
-0.108
-0.107
-0.111
-0.106
-0.107
-0.103
-0.107
-0.103
-0.103
-0.1
-0.087
-0.087
-0.084
-0.082
-0.075
-0.079
-0.073
-0.072
-0.06
-0.061
-0.054
-0.052
-0.049
-0.041
-0.038
-0.037
-0.029
-0.025
-0.013
0.014
0.025
0.05
0.044
0.047
0.066
0.085
0.095
0.098
0.092
0.065
0.047
0.041
0.028
-0.001
-0.019
-0.03
-0.028
-0.036
-0.038
-0.046
-0.048
-0.05
-0.045
-0.045
-0.044
-0.041
-0.04
-0.035
-0.028
-0.024
-0.024
-0.013
-0.018
-0.014
-0.026
-0.001
0.072
0.179
0.294
0.481
0.59
0.749
0.789
0.504
0.07
-0.418
-0.893
-1.017
-0.95
-0.836
-0.692
-0.512
-0.264
-0.059
0.075
0.142
0.17
0.183
0.205
0.219
0.227
0.235
0.24
0.255
0.255
0.256
0.253
0.265
0.269
0.272
0.276
0.281
0.286
0.287
0.291
0.295
0.304
0.31
0.32
0.327
0.333
0.338
0.35
0.352
0.366
0.369
0.373
0.371
0.375
0.37
0.366
0.357
0.345
0.336
0.315
0.297
0.276
0.263
0.238
0.215
0.186
0.163
0.13
0.099
0.065
0.035
0
-0.04
-0.073
-0.103
-0.118
-0.147
-0.17
-0.194
-0.205
-0.224
-0.227
-0.231
-0.237
-0.241
-0.239
-0.243
-0.24
-0.237
-0.239
-0.235
-0.23
-0.224
-0.222
-0.211
-0.212
-0.201
-0.195
-0.188
-0.182
-0.174
-0.17
-0.168
-0.162
-0.158
-0.148
-0.147
-0.143
-0.14
-0.129
-0.131
-0.129
-0.132
-0.124
-0.125
-0.123
-0.124
-0.119
-0.119
-0.117
-0.112
-0.112
-0.109
-0.109
-0.105
-0.109
-0.11
-0.113
-0.103
-0.101
-0.098
-0.097
-0.096
-0.094
-0.086
-0.086
-0.084
-0.08
-0.077
-0.072
-0.07
-0.06
-0.061
-0.047
-0.023
0
0.011
0.021
0.018
0.036
0.053
0.065
0.065
0.056
0.031
0.009
0.011
-0.011
-0.031
-0.059
-0.064
-0.069
-0.071
-0.076
-0.077
-0.078
-0.073
-0.075
-0.071
-0.072
-0.073
-0.063
-0.064
-0.058
-0.056
-0.048
-0.05
-0.044
-0.042
-0.048
-0.047
-0.005
0.101
0.183
0.35
0.501
0.623
0.773
0.664
0.231
-0.234
-0.781
-1.085
-1.098
-0.975
-0.808
-0.632
-0.374
-0.131
0.037
0.116
0.164
0.183
0.199
0.213
0.228
0.228
0.237
0.243
0.254
0.25
0.252
0.253
0.262
0.264
0.267
0.277
0.284
0.293
0.294
0.303
0.307
0.318
0.32
0.332
0.334
0.343
0.347
0.353
0.36
0.367
0.371
0.371
0.378
0.375
0.37
0.355
0.345
0.333
0.321
0.296
0.274
0.251
0.233
0.205
0.179
0.15
0.121
0.089
0.055
0.022
-0.01
-0.041
-0.077
-0.105
-0.132
-0.15
-0.179
-0.192
-0.211
-0.221
-0.231
-0.24
-0.244
-0.249
-0.253
-0.254
-0.254
-0.252
-0.248
-0.254
-0.244
-0.243
-0.234
-0.237
-0.228
-0.223
-0.215
-0.211
-0.202
-0.196
-0.187
-0.18
-0.172
-0.162
-0.155
-0.142
-0.141
-0.131
-0.126
-0.123
-0.119
-0.116
-0.114
-0.108
-0.102
-0.102
-0.098
-0.098
-0.094
-0.094
-0.088
-0.088
-0.087
-0.095
-0.089
-0.09
-0.088
-0.09
-0.093
-0.094
-0.092
-0.089
-0.089
-0.085
-0.086
-0.08
-0.082
-0.072
-0.075
-0.067
-0.073
-0.07
-0.062
-0.05
-0.041
-0.033
-0.008
0.018
0.034
0.044
0.046
0.049
0.07
0.083
0.094
0.088
0.079
0.042
0.029
0.016
-0.005
-0.021
-0.034
-0.038
-0.046
-0.055
-0.064
-0.066
-0.069
-0.061
-0.066
-0.062
-0.063
-0.059
-0.057
-0.052
-0.046
-0.043
-0.036
-0.031
-0.025
-0.028
-0.03
-0.01
0.067
0.163
0.276
0.445
0.566
0.706
0.77
0.543
0.035
-0.467
-0.969
-1.144
-1.105
-0.902
-0.722
-0.465
-0.194
0.01
0.11
0.169
0.192
0.217
0.232
0.239
0.244
0.252
0.262
0.264
0.264
0.262
0.269
0.272
0.273
0.272
0.28
0.283
0.294
0.292
0.298
0.306
0.315
0.32
0.329
0.339
0.347
0.357
0.362
0.373
0.38
0.387
0.383
0.384
0.388
0.391
0.381
0.365
0.353
0.335
0.319
0.293
0.271
0.248
0.227
0.198
0.174
0.145
0.11
0.076
0.041
0.005
-0.03
-0.065
-0.099
-0.13
-0.156
-0.179
-0.199
-0.215
-0.232
-0.243
-0.26
-0.262
-0.267
-0.267
-0.271
-0.268
-0.267
-0.265
-0.265
-0.264
-0.257
-0.254
-0.246
-0.246
-0.233
-0.227
-0.215
-0.215
-0.203
-0.2
-0.187
-0.183
-0.174
-0.167
-0.153
-0.148
-0.141
-0.128
-0.129
-0.12
-0.121
-0.112
-0.116
-0.109
-0.113
-0.108
-0.114
-0.111
-0.111
-0.11
-0.113
-0.112
-0.108
-0.107
-0.102
-0.103
-0.101
-0.105
-0.097
-0.098
-0.09
-0.091
-0.087
-0.088
-0.086
-0.083
-0.079
-0.079
-0.079
-0.075
-0.076
-0.07
-0.07
-0.059
-0.054
-0.046
-0.027
0.012
0.023
0.042
0.038
0.044
0.06
0.079
0.089
0.084
0.079
0.051
0.031
0.024
0.007
-0.015
-0.032
-0.039
-0.04
-0.042
-0.05
-0.057
-0.061
-0.063
-0.062
-0.057
-0.062
-0.058
-0.057
-0.05
-0.049
-0.041
-0.036
-0.028
-0.031
-0.026
-0.039
-0.029
0.027
0.127
0.209
0.39
0.523
0.637
0.751
0.609
0.152
-0.341
-0.863
-1.124
-1.133
-0.948
-0.756
-0.519
-0.243
-0.023
0.082
0.14
0.172
0.189
0.208
0.226
0.228
0.237
0.244
0.258
0.256
0.255
0.262
0.266
0.276
0.272
0.275
0.286
0.294
0.294
0.303
0.31
0.318
0.32
0.327
0.334
0.347
0.351
0.355
0.364
0.373
0.376
0.38
0.382
0.385
0.386
0.371
0.367
0.356
0.347
0.321
0.3
0.277
0.26
0.236
0.207
0.185
0.154
0.122
0.085
0.055
0.017
-0.008
-0.051
-0.085
-0.114
-0.137
-0.169
-0.188
-0.203
-0.215
-0.233
-0.245
-0.252
-0.255
-0.256
-0.262
-0.263
-0.265
-0.254
-0.259
-0.257
-0.254
-0.247
-0.245
-0.241
-0.234
-0.22
-0.21
-0.209
-0.203
-0.193
-0.182
-0.176
-0.165
-0.163
-0.15
-0.151
-0.141
-0.144
-0.136
-0.135
-0.13
-0.125
-0.12
-0.116
-0.111
-0.11
-0.108
-0.101
-0.102
-0.098
-0.104
-0.099
-0.103
-0.099
-0.102
-0.099
-0.102
-0.099
-0.103
-0.097
-0.093
-0.092
-0.089
-0.092
-0.088
-0.088
-0.088
-0.089
-0.08
-0.078
-0.075
-0.07
-0.066
-0.059
-0.054
-0.052
-0.052
-0.05
-0.045
-0.043
-0.041
-0.034
-0.032
-0.024
-0.018
0.013
0.038
0.058
0.07
0.061
0.073
0.091
0.108
0.108
0.104
0.086
0.059
0.051
0.033
0.009
-0.011
-0.014
-0.016
-0.027
-0.033
-0.039
-0.047
-0.042
-0.044
-0.039
-0.042
-0.034
-0.034
-0.03
-0.035
-0.025
-0.022
-0.011
-0.009
-0.01
-0.014
-0.02
0.013
0.104
0.185
0.339
0.499
0.584
0.728
0.705
0.367
-0.135
-0.646
-1.045
-1.129
-1.007
-0.812
-0.612
-0.333
-0.09
0.047
0.118
0.16
0.182
0.196
0.213
0.218
0.224
0.224
0.238
0.236
0.239
0.239
0.253
0.26
0.261
0.266
0.272
0.286
0.286
0.298
0.305
0.319
0.317
0.326
0.332
0.346
0.35
0.359
0.363
0.371
0.376
0.376
0.377
0.381
0.383
0.375
0.368
0.352
0.345
0.327
0.305
0.286
0.269
0.247
0.226
0.193
0.169
0.14
0.107
0.074
0.032
0.007
-0.034
-0.063
-0.09
-0.11
-0.139
-0.161
-0.186
-0.203
-0.217
-0.229
-0.237
-0.243
-0.243
-0.248
-0.252
-0.254
-0.248
-0.254
-0.249
-0.249
-0.238
-0.235
-0.23
-0.227
-0.217
-0.209
-0.197
-0.189
-0.184
-0.169
-0.164
-0.156
-0.153
-0.142
-0.139
-0.131
-0.132
-0.124
-0.121
-0.121
-0.12
-0.115
-0.111
-0.114
-0.11
-0.111
-0.108
-0.109
-0.108
-0.109
-0.102
-0.106
-0.103
-0.104
-0.101
-0.103
-0.099
-0.098
-0.095
-0.091
-0.091
-0.086
-0.085
-0.085
-0.088
-0.081
-0.083
-0.076
-0.078
-0.071
-0.071
-0.065
-0.065
-0.063
-0.059
-0.062
-0.052
-0.054
-0.045
-0.047
-0.042
-0.045
-0.04
-0.043
-0.038
-0.042
-0.033
-0.03
-0.032
-0.028
-0.028
-0.029
-0.028
-0.02
-0.018
-0.015
-0.017
-0.009
-0.013
-0.006
-0.003
0.006
0.014
0.037
0.058
0.071
0.085
0.081
0.098
0.109
0.129
0.125
0.119
0.095
0.068
0.062
0.046
0.02
0.005
-0.004
-0.004
-0.01
-0.019
-0.022
-0.026
-0.021
-0.021
-0.021
-0.027
-0.02
-0.022
-0.013
-0.016
-0.005
0
0.008
0.009
0.01
0.007
0
0.031
0.123
0.207
0.368
0.522
0.618
0.759
0.732
0.381
-0.117
-0.626
-1.005
-1.081
-0.955
-0.761
-0.564
-0.299
-0.055
0.079
0.154
0.191
0.211
0.221
0.237
0.243
0.242
0.248
0.259
0.263
0.261
0.264
0.271
0.281
0.275
0.283
0.29
0.299
0.296
0.305
0.312
0.322
0.324
0.328
0.334
0.342
0.35
0.348
0.35
0.357
0.37
0.363
0.365
0.366
0.372
0.362
0.353
0.34
0.33
0.311
0.29
0.27
0.251
0.23
0.199
0.174
0.15
0.124
0.089
0.056
0.022
-0.004
-0.045
-0.077
-0.11
-0.134
-0.16
-0.191
-0.213
-0.226
-0.239
-0.257
-0.262
-0.275
-0.273
-0.281
-0.285
-0.293
-0.289
-0.29
-0.291
-0.289
-0.282
-0.278
-0.275
-0.267
-0.262
-0.255
-0.252
-0.24
-0.236
-0.221
-0.221
-0.21
-0.21
-0.201
-0.201
-0.19
-0.181
-0.178
-0.167
-0.165
-0.157
-0.157
-0.15
-0.148
-0.143
-0.145
-0.138
-0.141
-0.139
-0.142
-0.142
-0.14
-0.14
-0.14
-0.139
-0.139
-0.138
-0.137
-0.134
-0.127
-0.13
-0.126
-0.127
-0.12
-0.122
-0.115
-0.114
-0.108
-0.103
-0.1
-0.095
-0.091
-0.085
-0.089
-0.083
-0.082
-0.074
-0.077
-0.067
-0.072
-0.063
-0.067
-0.066
-0.062
-0.059
-0.059
-0.058
-0.05
-0.047
-0.038
-0.039
-0.032
-0.037
-0.028
-0.03
-0.024
-0.029
-0.024
-0.024
-0.016
-0.012
0
0.028
0.044
0.061
0.072
0.073
0.078
0.105
0.113
0.114
0.101
0.086
0.06
0.053
0.031
0.015
-0.009
-0.012
-0.015
-0.019
-0.028
-0.036
-0.037
-0.037
-0.033
-0.037
-0.028
-0.035
-0.031
-0.03
-0.024
-0.019
-0.014
-0.012
-0.012
-0.011
-0.012
0.004
0.062
0.162
0.251
0.426
0.535
0.683
0.782
0.6
0.136
-0.344
-0.863
-1.057
-1.027
-0.861
-0.695
-0.496
-0.239
-0.034
0.08
0.14
0.176
0.184
0.203
0.218
0.226
0.228
0.232
0.247
0.251
0.255
0.256
0.265
0.261
0.269
0.266
0.28
0.287
0.287
0.29
0.297
0.304
0.309
0.312
0.319
0.333
0.337
0.343
0.344
0.355
0.358
0.361
0.358
0.365
0.363
0.36
0.345
0.338
0.326
0.307
0.287
0.271
0.252
0.233
0.211
0.182
0.161
0.124
0.094
0.054
0.026
-0.008
-0.044
-0.08
-0.107
-0.131
-0.16
-0.181
-0.203
-0.215
-0.231
-0.239
-0.257
-0.257
-0.26
-0.256
-0.267
-0.264
-0.268
-0.265
-0.263
-0.254
-0.246
-0.247
-0.239
-0.236
-0.22
-0.219
-0.205
-0.203
-0.195
-0.188
-0.176
-0.175
-0.17
-0.16
-0.151
-0.153
-0.155
-0.146
-0.146
-0.145
-0.147
-0.13
-0.128
-0.124
-0.132
-0.125
-0.123
-0.123
-0.125
-0.121
-0.12
-0.116
-0.113
-0.117
-0.117
-0.117
-0.111
-0.114
-0.104
-0.106
-0.102
-0.102
-0.099
-0.097
-0.096
-0.091
-0.087
-0.082
-0.082
-0.077
-0.075
-0.063
-0.065
-0.059
-0.059
-0.055
-0.056
-0.049
-0.049
-0.043
-0.04
-0.036
-0.036
-0.034
-0.027
-0.024
-0.011
0
0.024
0.038
0.059
0.065
0.067
0.085
0.109
0.121
0.129
0.113
0.096
0.072
0.07
0.056
0.032
0.016
0.002
0.003
-0.004
-0.004
-0.012
-0.014
-0.019
-0.017
-0.012
-0.017
-0.017
-0.015
-0.007
-0.005
-0.005
-0.001
0.008
0.012
0.014
0
0.016
0.059
0.173
0.259
0.429
0.574
0.698
0.829
0.677
0.25
-0.197
-0.728
-0.996
-0.984
-0.892
-0.74
-0.587
-0.349
-0.119
0.051
0.137
0.179
0.199
0.217
0.232
0.237
0.251
0.25
0.261
0.263
0.273
0.271
0.28
0.281
0.285
0.281
0.29
0.294
0.299
0.303
0.308
0.315
0.321
0.328
0.328
0.339
0.34
0.353
0.353
0.361
0.363
0.373
0.373
0.373
0.374
0.366
0.359
0.346
0.34
0.322
0.311
0.283
0.267
0.243
0.219
0.186
0.163
0.137
0.107
0.07
0.039
0.01
-0.026
-0.055
-0.086
-0.108
-0.134
-0.155
-0.184
-0.2
-0.217
-0.229
-0.246
-0.251
-0.256
-0.261
-0.261
-0.262
-0.256
-0.26
-0.254
-0.255
-0.246
-0.244
-0.242
-0.241
-0.229
-0.222
-0.219
-0.212
-0.2
-0.191
-0.186
-0.179
-0.173
-0.167
-0.161
-0.152
-0.149
-0.139
-0.137
-0.128
-0.132
-0.127
-0.124
-0.115
-0.117
-0.111
-0.108
-0.106
-0.105
-0.1
-0.101
-0.098
-0.093
-0.1
-0.097
-0.1
-0.092
-0.095
-0.093
-0.091
-0.09
-0.09
-0.09
-0.089
-0.089
-0.087
-0.085
-0.081
-0.077
-0.073
-0.072
-0.067
-0.065
-0.062
-0.062
-0.055
-0.051
-0.05
-0.048
-0.043
-0.046
-0.045
-0.029
-0.027
-0.01
0.014
0.034
0.045
0.055
0.055
0.068
0.081
0.095
0.094
0.087
0.068
0.048
0.045
0.027
0.009
-0.014
-0.012
-0.022
-0.03
-0.044
-0.053
-0.064
-0.068
-0.064
-0.064
-0.07
-0.067
-0.061
-0.06
-0.054
-0.053
-0.043
-0.04
-0.034
-0.037
-0.039
-0.03
0.032
0.14
0.229
0.405
0.534
0.661
0.769
0.608
0.132
-0.342
-0.875
-1.114
-1.115
-0.941
-0.761
-0.549
-0.277
-0.047
0.068
0.135
0.174
0.196
0.214
0.223
0.236
0.239
0.253
0.262
0.269
0.266
0.27
0.274
0.278
0.276
0.278
0.288
0.298
0.297
0.305
0.314
0.318
0.328
0.328
0.335
0.34
0.352
0.352
0.359
0.363
0.373
0.369
0.372
0.374
0.371
0.364
0.355
0.344
0.328
0.314
0.287
0.273
0.248
0.227
0.196
0.172
0.142
0.115
0.078
0.044
0.007
-0.026
-0.062
-0.096
-0.123
-0.153
-0.175
-0.204
-0.217
-0.232
-0.239
-0.256
-0.257
-0.26
-0.263
-0.267
-0.269
-0.268
-0.271
-0.266
-0.268
-0.259
-0.259
-0.253
-0.25
-0.242
-0.232
-0.223
-0.218
-0.209
-0.201
-0.191
-0.181
-0.171
-0.16
-0.153
-0.144
-0.145
-0.132
-0.128
-0.119
-0.124
-0.118
-0.113
-0.107
-0.109
-0.105
-0.104
-0.104
-0.105
-0.106
-0.105
-0.104
-0.096
-0.101
-0.098
-0.1
-0.097
-0.099
-0.1
-0.102
-0.097
-0.096
-0.09
-0.091
-0.095
-0.09
-0.089
-0.087
-0.087
-0.081
-0.086
-0.078
-0.079
-0.072
-0.071
-0.067
-0.064
-0.059
-0.058
-0.054
-0.054
-0.052
-0.052
-0.047
-0.04
-0.043
-0.037
-0.039
-0.037
-0.038
-0.034
-0.03
-0.017
-0.008
0.009
0.039
0.053
0.073
0.073
0.07
0.091
0.117
0.119
0.113
0.097
0.071
0.06
0.052
0.029
0.008
-0.003
-0.011
-0.012
-0.014
-0.026
-0.034
-0.031
-0.036
-0.034
-0.035
-0.03
-0.029
-0.026
-0.028
-0.022
-0.014
-0.008
-0.004
-0.005
-0.003
-0.013
0.016
0.101
0.193
0.332
0.498
0.593
0.729
0.737
0.446
-0.068
-0.566
-1.004
-1.128
-1.036
-0.831
-0.631
-0.364
-0.107
0.046
0.128
0.169
0.195
0.209
0.226
0.233
0.241
0.249
0.256
0.258
0.257
0.263
0.268
0.271
0.274
0.28
0.284
0.296
0.292
0.293
0.304
0.318
0.32
0.322
0.328
0.335
0.342
0.345
0.35
0.355
0.368
0.366
0.369
0.37
0.376
0.372
0.367
0.358
0.352
0.339
0.316
0.297
0.274
0.257
0.224
0.194
0.167
0.142
0.106
0.073
0.035
0.005
-0.033
-0.072
-0.103
-0.128
-0.155
-0.181
-0.209
-0.229
-0.236
-0.255
-0.263
-0.272
-0.271
-0.279
-0.281
-0.284
-0.278
-0.283
-0.279
-0.281
-0.274
-0.268
-0.264
-0.256
-0.25
-0.24
-0.234
-0.224
-0.215
-0.205
-0.205
-0.196
-0.194
-0.184
-0.18
-0.177
-0.169
-0.164
-0.158
-0.157
-0.15
-0.147
-0.141
-0.145
-0.139
-0.14
-0.13
-0.13
-0.127
-0.126
-0.121
-0.117
-0.119
-0.119
-0.116
-0.113
-0.111
-0.102
-0.104
-0.098
-0.099
-0.096
-0.097
-0.092
-0.094
-0.09
-0.089
-0.087
-0.085
-0.084
-0.078
-0.075
-0.065
-0.058
-0.06
-0.059
-0.054
-0.056
-0.046
-0.045
-0.042
-0.046
-0.04
-0.038
-0.034
-0.025
-0.025
-0.016
-0.016
-0.014
-0.014
-0.006
-0.011
-0.006
-0.009
0
0.001
0.005
0.012
0.026
0.046
0.067
0.087
0.102
0.098
0.107
0.137
0.145
0.15
0.138
0.121
0.093
0.086
0.059
0.037
0.015
0.015
0.006
-0.003
-0.006
-0.016
-0.019
-0.02
-0.016
-0.02
-0.018
-0.021
-0.018
-0.02
-0.017
-0.009
-0.009
-0.006
-0.004
-0.002
-0.01
0.001
0.05
0.157
0.229
0.402
0.533
0.661
0.768
0.658
0.198
-0.281
-0.802
-1.063
-1.086
-0.903
-0.722
-0.495
-0.225
-0.019
0.092
0.143
0.171
0.186
0.209
0.215
0.224
0.228
0.239
0.252
0.254
0.248
0.256
0.27
0.271
0.272
0.275
0.293
0.291
0.291
0.289
0.297
0.308
0.311
0.317
0.325
0.334
0.335
0.336
0.34
0.356
0.359
0.363
0.365
0.375
0.372
0.365
0.35
0.345
0.331
0.309
0.292
0.275
0.258
0.232
0.209
0.183
0.161
0.131
0.1
0.056
0.029
-0.007
-0.046
-0.082
-0.111
-0.139
-0.169
-0.197
-0.215
-0.225
-0.245
-0.256
-0.265
-0.265
-0.273
-0.272
-0.281
-0.281
-0.284
-0.285
-0.285
-0.28
-0.278
-0.275
-0.269
-0.26
-0.249
-0.244
-0.239
-0.234
-0.222
-0.219
-0.21
-0.208
-0.199
-0.19
-0.177
-0.173
-0.169
-0.159
-0.158
-0.148
-0.146
-0.137
-0.136
-0.129
-0.131
-0.123
-0.122
-0.116
-0.12
-0.117
-0.121
-0.116
-0.116
-0.119
-0.117
-0.119
-0.117
-0.122
-0.114
-0.112
-0.105
-0.108
-0.105
-0.102
-0.098
-0.101
-0.098
-0.094
-0.094
-0.093
-0.09
-0.086
-0.084
-0.082
-0.083
-0.075
-0.075
-0.068
-0.071
-0.065
-0.062
-0.058
-0.06
-0.058
-0.05
-0.047
-0.044
-0.045
-0.042
-0.044
-0.039
-0.041
-0.031
-0.034
-0.028
-0.026
-0.025
-0.023
-0.017
-0.011
0
0.02
0.036
0.06
0.076
0.075
0.077
0.099
0.109
0.116
0.108
0.087
0.062
0.054
0.033
0.015
-0.002
-0.012
-0.014
-0.015
-0.019
-0.028
-0.026
-0.028
-0.021
-0.026
-0.024
-0.024
-0.022
-0.019
-0.017
-0.013
-0.007
-0.002
-0.004
0
-0.004
0.004
0.049
0.155
0.224
0.399
0.526
0.652
0.772
0.685
0.254
-0.225
-0.754
-1.044
-1.068
-0.908
-0.722
-0.512
-0.241
-0.025
0.091
0.145
0.182
0.196
0.214
0.226
0.239
0.237
0.249
0.255
0.257
0.26
0.264
0.278
0.282
0.284
0.284
0.298
0.297
0.302
0.303
0.313
0.323
0.331
0.336
0.337
0.352
0.355
0.362
0.369
0.378
0.381
0.387
0.382
0.391
0.389
0.388
0.377
0.367
0.355
0.34
0.318
0.302
0.284
0.255
0.235
0.207
0.191
0.156
0.128
0.087
0.058
0.021
-0.013
-0.049
-0.083
-0.113
-0.14
-0.161
-0.184
-0.199
-0.213
-0.221
-0.232
-0.237
-0.245
-0.247
-0.256
-0.256
-0.255
-0.257
-0.258
-0.26
-0.255
-0.253
-0.247
-0.248
-0.237
-0.233
-0.226
-0.223
-0.214
-0.204
-0.2
-0.199
-0.187
-0.184
-0.176
-0.167
-0.164
-0.155
-0.156
-0.151
-0.146
-0.143
-0.141
-0.133
-0.131
-0.128
-0.125
-0.121
-0.118
-0.114
-0.113
-0.115
-0.115
-0.112
-0.106
-0.106
-0.101
-0.102
-0.099
-0.102
-0.093
-0.095
-0.089
-0.089
-0.086
-0.084
-0.079
-0.079
-0.074
-0.071
-0.068
-0.068
-0.063
-0.058
-0.059
-0.058
-0.059
-0.049
-0.052
-0.05
-0.05
-0.048
-0.051
-0.044
-0.043
-0.039
-0.039
-0.034
-0.033
-0.038
-0.032
-0.031
-0.028
-0.027
-0.019
-0.011
0.004
0.021
0.037
0.055
0.058
0.065
0.084
0.105
0.114
0.12
0.098
0.082
0.064
0.05
0.029
0.013
-0.002
-0.001
0
-0.012
-0.016
-0.023
-0.018
-0.02
-0.017
-0.021
-0.016
-0.023
-0.014
-0.014
-0.008
-0.007
0.004
0.001
0.007
-0.001
0.008
0.048
0.145
0.231
0.388
0.55
0.667
0.832
0.739
0.348
-0.095
-0.622
-0.96
-0.982
-0.883
-0.742
-0.596
-0.369
-0.14
0.032
0.117
0.16
0.182
0.193
0.209
0.213
0.224
0.222
0.233
0.239
0.244
0.24
0.249
0.255
0.261
0.259
0.264
0.273
0.276
0.275
0.275
0.29
0.292
0.302
0.304
0.311
0.317
0.32
0.325
0.337
0.346
0.345
0.35
0.352
0.36
0.353
0.345
0.332
0.326
0.312
0.299
0.276
0.258
0.24
0.215
0.192
0.163
0.14
0.107
0.078
0.043
0.015
-0.019
-0.047
-0.083
-0.107
-0.135
-0.157
-0.184
-0.203
-0.214
-0.227
-0.235
-0.243
-0.241
-0.254
-0.251
-0.264
-0.26
-0.267
-0.26
-0.26
-0.255
-0.253
-0.252
-0.247
-0.238
-0.225
-0.223
-0.218
-0.209
-0.195
-0.19
-0.178
-0.177
-0.164
-0.16
-0.151
-0.15
-0.143
-0.143
-0.14
-0.14
-0.135
-0.128
-0.125
-0.118
-0.115
-0.115
-0.119
-0.114
-0.121
-0.113
-0.117
-0.118
-0.121
-0.12
-0.118
-0.122
-0.118
-0.119
-0.116
-0.119
-0.111
-0.11
-0.108
-0.107
-0.1
-0.105
-0.099
-0.101
-0.095
-0.094
-0.088
-0.084
-0.081
-0.079
-0.077
-0.068
-0.07
-0.062
-0.068
-0.063
-0.065
-0.055
-0.057
-0.055
-0.055
-0.057
-0.054
-0.052
-0.042
-0.034
-0.027
-0.01
0.017
0.035
0.057
0.052
0.06
0.075
0.095
0.106
0.103
0.092
0.066
0.052
0.044
0.027
0.009
-0.006
-0.014
-0.015
-0.023
-0.024
-0.034
-0.033
-0.035
-0.026
-0.027
-0.029
-0.032
-0.024
-0.022
-0.019
-0.009
-0.013
-0.006
-0.007
-0.003
-0.011
0.005
0.06
0.171
0.263
0.44
0.561
0.701
0.796
0.61
0.142
-0.339
-0.878
-1.082
-1.06
-0.909
-0.73
-0.531
-0.27
-0.053
0.079
0.141
0.179
0.195
0.214
0.227
0.23
0.235
0.242
0.251
0.253
0.255
0.253
0.263
0.268
0.272
0.273
0.28
0.286
0.29
0.296
0.303
0.313
0.314
0.32
0.326
0.342
0.339
0.341
0.339
0.353
0.353
0.356
0.359
0.364
0.367
0.361
0.351
0.341
0.33
0.316
0.296
0.273
0.259
0.233
0.207
0.178
0.156
0.124
0.092
0.054
0.023
-0.011
-0.046
-0.08
-0.112
-0.136
-0.164
-0.183
-0.207
-0.223
-0.236
-0.246
-0.254
-0.255
-0.26
-0.261
-0.263
-0.262
-0.263
-0.263
-0.264
-0.263
-0.252
-0.253
-0.249
-0.245
-0.241
-0.237
-0.226
-0.221
-0.211
-0.206
-0.2
-0.193
-0.187
-0.175
-0.172
-0.16
-0.156
-0.148
-0.143
-0.136
-0.137
-0.131
-0.131
-0.122
-0.121
-0.118
-0.116
-0.117
-0.119
-0.12
-0.114
-0.118
-0.113
-0.118
-0.113
-0.116
-0.111
-0.112
-0.107
-0.109
-0.107
-0.107
-0.103
-0.101
-0.099
-0.095
-0.093
-0.091
-0.091
-0.085
-0.086
-0.079
-0.078
-0.073
-0.078
-0.073
-0.073
-0.067
-0.066
-0.061
-0.06
-0.059
-0.052
-0.049
-0.041
-0.044
-0.035
-0.031
-0.023
-0.02
-0.01
0.004
0.03
0.049
0.063
0.073
0.074
0.082
0.099
0.117
0.108
0.101
0.069
0.056
0.046
0.03
0.006
-0.013
-0.022
-0.022
-0.024
-0.034
-0.046
-0.048
-0.049
-0.048
-0.045
-0.042
-0.04
-0.04
-0.031
-0.031
-0.02
-0.017
-0.013
-0.014
-0.014
-0.018
-0.005
0.051
0.154
0.24
0.413
0.547
0.666
0.771
0.642
0.186
-0.308
-0.829
-1.101
-1.114
-0.926
-0.732
-0.49
-0.22
-0.005
0.099
0.153
0.18
0.205
0.223
0.233
0.234
0.245
0.252
0.264
0.261
0.266
0.27
0.276
0.277
0.276
0.28
0.287
0.297
0.296
0.3
0.312
0.322
0.325
0.333
0.338
0.351
0.356
0.357
0.366
0.374
0.377
0.378
0.386
0.384
0.389
0.381
0.369
0.357
0.35
0.331
0.311
0.288
0.274
0.247
0.217
0.192
0.165
0.134
0.094
0.059
0.025
-0.007
-0.051
-0.08
-0.114
-0.141
-0.168
-0.191
-0.215
-0.229
-0.249
-0.261
-0.267
-0.273
-0.274
-0.28
-0.279
-0.283
-0.282
-0.285
-0.278
-0.28
-0.268
-0.266
-0.259
-0.249
-0.241
-0.236
-0.23
-0.216
-0.209
-0.202
-0.198
-0.188
-0.181
-0.17
-0.167
-0.159
-0.156
-0.144
-0.142
-0.138
-0.127
-0.119
-0.117
-0.115
-0.107
-0.109
-0.101
-0.101
-0.092
-0.096
-0.091
-0.092
-0.086
-0.091
-0.089
-0.088
-0.088
-0.092
-0.086
-0.083
-0.079
-0.076
-0.074
-0.07
-0.07
-0.061
-0.065
-0.064
-0.063
-0.054
-0.051
-0.052
-0.048
-0.047
-0.045
-0.045
-0.04
-0.039
-0.036
-0.039
-0.031
-0.036
-0.029
-0.03
-0.016
-0.013
0.001
0.025
0.048
0.063
0.073
0.07
0.082
0.106
0.118
0.125
0.123
0.11
0.059
0.056
0.033
0.013
-0.01
-0.015
-0.021
-0.026
-0.036
-0.045
-0.047
-0.05
-0.044
-0.045
-0.041
-0.046
-0.041
-0.038
-0.027
-0.027
-0.022
-0.015
-0.014
-0.009
-0.014
-0.021
0.004
0.083
0.164
0.308
0.475
0.58
0.717
0.738
0.446
-0.045
-0.557
-1.003
-1.119
-1.028
-0.833
-0.644
-0.367
-0.119
0.036
0.11
0.159
0.179
0.199
0.207
0.22
0.22
0.229
0.238
0.247
0.249
0.249
0.256
0.261
0.264
0.265
0.279
0.284
0.294
0.292
0.301
0.306
0.314
0.314
0.326
0.336
0.344
0.349
0.353
0.363
0.369
0.379
0.375
0.382
0.379
0.377
0.363
0.357
0.342
0.329
0.308
0.29
0.271
0.249
0.227
0.202
0.181
0.151
0.118
0.078
0.047
0.012
-0.024
-0.063
-0.092
-0.12
-0.145
-0.175
-0.198
-0.215
-0.229
-0.24
-0.248
-0.247
-0.255
-0.255
-0.261
-0.262
-0.264
-0.262
-0.264
-0.259
-0.251
-0.244
-0.243
-0.239
-0.229
-0.222
-0.211
-0.208
-0.197
-0.194
-0.182
-0.18
-0.165
-0.161
-0.156
-0.151
-0.144
-0.138
-0.133
-0.13
-0.128
-0.121
-0.118
-0.111
-0.114
-0.106
-0.107
-0.104
-0.106
-0.101
-0.104
-0.099
-0.102
-0.101
-0.099
-0.093
-0.094
-0.089
-0.082
-0.081
-0.08
-0.081
-0.076
-0.081
-0.074
-0.078
-0.071
-0.074
-0.068
-0.072
-0.072
-0.069
-0.072
-0.068
-0.068
-0.059
-0.057
-0.055
-0.057
-0.049
-0.048
-0.042
-0.04
-0.034
-0.034
-0.032
-0.029
-0.021
-0.004
0.023
0.038
0.052
0.063
0.06
0.091
0.105
0.111
0.104
0.096
0.072
0.059
0.037
0.02
-0.004
-0.015
-0.019
-0.027
-0.03
-0.038
-0.04
-0.045
-0.04
-0.043
-0.04
-0.046
-0.044
-0.043
-0.04
-0.038
-0.034
-0.026
-0.025
-0.023
-0.021
-0.025
-0.01
0.065
0.16
0.269
0.435
0.553
0.714
0.778
0.535
0.049
-0.443
-0.928
-1.067
-1.011
-0.838
-0.678
-0.453
-0.197
0.002
0.094
0.151
0.174
0.19
0.198
0.214
0.221
0.225
0.236
0.241
0.246
0.249
0.252
0.262
0.27
0.272
0.273
0.278
0.289
0.288
0.296
0.299
0.309
0.31
0.317
0.322
0.329
0.336
0.338
0.351
0.351
0.359
0.357
0.361
0.357
0.358
0.349
0.342
0.335
0.321
0.306
0.287
0.269
0.254
0.231
0.203
0.179
0.148
0.125
0.089
0.054
0.016
-0.016
-0.056
-0.091
-0.118
-0.143
-0.166
-0.19
-0.208
-0.224
-0.235
-0.251
-0.259
-0.262
-0.262
-0.266
-0.265
-0.273
-0.269
-0.27
-0.27
-0.262
-0.26
-0.256
-0.251
-0.245
-0.233
-0.23
-0.227
-0.213
-0.212
-0.196
-0.188
-0.181
-0.178
-0.168
-0.164
-0.158
-0.151
-0.141
-0.135
-0.137
-0.129
-0.127
-0.125
-0.125
-0.119
-0.12
-0.114
-0.119
-0.113
-0.116
-0.113
-0.117
-0.116
-0.114
-0.106
-0.107
-0.109
-0.109
-0.108
-0.107
-0.111
-0.098
-0.101
-0.095
-0.096
-0.091
-0.086
-0.087
-0.085
-0.086
-0.079
-0.077
-0.069
-0.065
-0.061
-0.062
-0.056
-0.056
-0.048
-0.048
-0.035
-0.033
-0.016
0.008
0.029
0.041
0.042
0.047
0.066
0.094
0.109
0.107
0.091
0.076
0.052
0.055
0.035
0.011
-0.013
-0.021
-0.025
-0.028
-0.038
-0.047
-0.049
-0.047
-0.046
-0.042
-0.037
-0.044
-0.041
-0.04
-0.033
-0.036
-0.031
-0.022
-0.02
-0.018
-0.024
-0.022
0.004
0.096
0.192
0.339
0.504
0.612
0.763
0.726
0.372
-0.07
-0.585
-0.969
-1.034
-0.955
-0.816
-0.673
-0.462
-0.222
-0.025
0.079
0.142
0.164
0.187
0.2
0.218
0.22
0.225
0.234
0.241
0.245
0.248
0.252
0.257
0.267
0.269
0.272
0.271
0.286
0.284
0.287
0.286
0.298
0.301
0.301
0.306
0.321
0.328
0.329
0.333
0.345
0.353
0.354
0.356
0.35
0.356
0.342
0.334
0.32
0.315
0.293
0.275
0.26
0.242
0.217
0.192
0.171
0.138
0.11
0.075
0.043
0.005
-0.024
-0.063
-0.096
-0.123
-0.142
-0.168
-0.191
-0.206
-0.217
-0.231
-0.245
-0.241
-0.252
-0.25
-0.256
-0.252
-0.26
-0.251
-0.253
-0.253
-0.253
-0.242
-0.24
-0.238
-0.23
-0.222
-0.212
-0.208
-0.201
-0.195
-0.184
-0.179
-0.169
-0.165
-0.155
-0.15
-0.145
-0.14
-0.132
-0.132
-0.124
-0.119
-0.121
-0.112
-0.112
-0.109
-0.108
-0.105
-0.107
-0.103
-0.106
-0.101
-0.101
-0.1
-0.097
-0.099
-0.093
-0.097
-0.092
-0.091
-0.084
-0.084
-0.074
-0.081
-0.076
-0.076
-0.07
-0.063
-0.06
-0.057
-0.057
-0.054
-0.049
-0.043
-0.047
-0.039
-0.035
-0.024
-0.018
0.01
0.026
0.044
0.049
0.052
0.059
0.084
0.099
0.102
0.095
0.076
0.052
0.044
0.035
0.01
-0.008
-0.019
-0.019
-0.031
-0.034
-0.04
-0.049
-0.057
-0.055
-0.052
-0.048
-0.047
-0.043
-0.039
-0.036
-0.029
-0.027
-0.021
-0.022
-0.008
-0.012
-0.017
-0.007
0.048
0.159
0.242
0.414
0.538
0.668
0.789
0.642
0.181
-0.291
-0.827
-1.075
-1.069
-0.932
-0.76
-0.571
-0.313
-0.081
0.067
0.138
0.183
0.201
0.217
0.23
0.241
0.244
0.253
0.258
0.268
0.265
0.27
0.27
0.277
0.279
0.278
0.29
0.296
0.304
0.307
0.316
0.316
0.324
0.326
0.336
0.339
0.351
0.349
0.365
0.369
0.377
0.38
0.379
0.383
0.379
0.37
0.358
0.354
0.335
0.321
0.297
0.285
0.26
0.24
0.212
0.187
0.156
0.122
0.086
0.047
0.01
-0.027
-0.056
-0.092
-0.118
-0.15
-0.172
-0.201
-0.216
-0.232
-0.243
-0.255
-0.266
-0.271
-0.271
-0.275
-0.279
-0.278
-0.274
-0.273
-0.274
-0.264
-0.262
-0.257
-0.257
-0.245
-0.243
-0.23
-0.223
-0.221
-0.211
-0.203
-0.193
-0.186
-0.178
-0.167
-0.153
-0.153
-0.137
-0.138
-0.131
-0.13
-0.121
-0.117
-0.114
-0.111
-0.108
-0.105
-0.098
-0.095
-0.096
-0.09
-0.091
-0.087
-0.092
-0.089
-0.095
-0.088
-0.091
-0.09
-0.09
-0.085
-0.082
-0.078
-0.073
-0.076
-0.075
-0.076
-0.067
-0.067
-0.064
-0.064
-0.057
-0.06
-0.052
-0.051
-0.043
-0.042
-0.037
-0.038
-0.037
-0.029
-0.031
-0.025
-0.027
-0.019
-0.015
-0.011
-0.011
-0.002
0
0.001
0.002
0.008
0.018
0.02
0.039
0.065
0.081
0.1
0.105
0.106
0.123
0.132
0.148
0.138
0.129
0.103
0.088
0.08
0.061
0.036
0.023
0.017
0.01
0.009
-0.001
-0.001
-0.011
-0.011
-0.011
-0.008
-0.009
-0.009
-0.008
-0.004
-0.004
0
0.005
0.005
0.008
0.01
0.009
0.007
0.057
0.162
0.241
0.416
0.563
0.669
0.778
0.713
0.317
-0.188
-0.708
-1.057
-1.112
-0.966
-0.777
-0.562
-0.291
-0.054
0.078
0.151
0.187
0.207
0.224
0.243
0.247
0.249
0.255
0.262
0.265
0.264
0.266
0.272
0.281
0.274
0.277
0.285
0.292
0.291
0.295
0.301
0.306
0.31
0.314
0.321
0.326
0.337
0.339
0.343
0.349
0.357
0.351
0.357
0.353
0.361
0.356
0.345
0.334
0.323
0.307
0.284
0.267
0.245
0.224
0.193
0.171
0.146
0.112
0.077
0.046
0.008
-0.023
-0.061
-0.099
-0.131
-0.159
-0.186
-0.214
-0.229
-0.247
-0.261
-0.278
-0.285
-0.29
-0.291
-0.297
-0.3
-0.304
-0.299
-0.3
-0.299
-0.296
-0.29
-0.282
-0.281
-0.271
-0.268
-0.255
-0.256
-0.246
-0.238
-0.231
-0.23
-0.22
-0.215
-0.203
-0.198
-0.194
-0.184
-0.179
-0.172
-0.174
-0.168
-0.165
-0.156
-0.162
-0.152
-0.151
-0.147
-0.148
-0.148
-0.147
-0.141
-0.142
-0.142
-0.14
-0.144
-0.136
-0.135
-0.132
-0.137
-0.127
-0.129
-0.125
-0.13
-0.124
-0.124
-0.118
-0.116
-0.112
-0.109
-0.106
-0.103
-0.104
-0.094
-0.09
-0.087
-0.084
-0.077
-0.076
-0.072
-0.069
-0.064
-0.064
-0.061
-0.059
-0.055
-0.053
-0.049
-0.046
-0.043
-0.035
-0.034
-0.032
-0.032
-0.03
-0.027
-0.02
-0.02
-0.015
-0.015
-0.014
-0.013
-0.009
-0.003
-0.004
0.002
0.006
0.014
0.03
0.055
0.063
0.083
0.08
0.086
0.099
0.122
0.127
0.121
0.113
0.085
0.065
0.06
0.043
0.024
0.01
-0.001
-0.004
-0.011
-0.014
-0.028
-0.03
-0.03
-0.027
-0.025
-0.021
-0.017
-0.019
-0.014
-0.012
-0.004
-0.004
-0.003
-0.006
0.001
-0.009
-0.008
0.026
0.136
0.206
0.382
0.525
0.627
0.728
0.69
0.328
-0.177
-0.68
-1.041
-1.11
-0.969
-0.771
-0.555
-0.285
-0.059
0.076
0.147
0.175
0.194
0.213
0.231
0.231
0.241
0.249
0.265
0.261
0.265
0.262
0.273
0.275
0.274
0.271
0.284
0.292
0.29
0.292
0.303
0.313
0.314
0.319
0.318
0.339
0.341
0.346
0.343
0.358
0.365
0.365
0.365
0.375
0.376
0.371
0.362
0.353
0.347
0.328
0.312
0.291
0.276
0.248
0.225
0.198
0.172
0.137
0.106
0.074
0.04
0.006
-0.033
-0.07
-0.105
-0.13
-0.163
-0.185
-0.21
-0.221
-0.243
-0.254
-0.271
-0.276
-0.281
-0.288
-0.296
-0.296
-0.293
-0.294
-0.289
-0.289
-0.285
-0.281
-0.275
-0.273
-0.261
-0.258
-0.248
-0.244
-0.231
-0.223
-0.214
-0.206
-0.197
-0.187
-0.178
-0.172
-0.167
-0.156
-0.152
-0.148
-0.148
-0.136
-0.133
-0.134
-0.132
-0.129
-0.121
-0.123
-0.113
-0.111
-0.109
-0.109
-0.106
-0.108
-0.107
-0.112
-0.107
-0.109
-0.106
-0.108
-0.104
-0.108
-0.103
-0.101
-0.102
-0.098
-0.098
-0.092
-0.09
-0.087
-0.091
-0.079
-0.077
-0.074
-0.078
-0.072
-0.075
-0.067
-0.063
-0.06
-0.058
-0.056
-0.053
-0.049
-0.046
-0.048
-0.04
-0.038
-0.028
-0.032
-0.024
-0.023
-0.021
-0.02
-0.016
-0.01
-0.01
-0.006
-0.004
0.008
0.009
0.016
0.014
0.018
0.016
0.019
0.01
0.018
0.021
0.025
0.024
0.029
0.033
0.032
0.033
0.034
0.042
0.044
0.06
0.08
0.1
0.109
0.12
0.119
0.127
0.145
0.159
0.16
0.147
0.13
0.105
0.105
0.083
0.066
0.042
0.038
0.03
0.025
0.013
0.009
-0.001
0.001
0
0.002
0
-0.001
0.004
0.007
0.008
0.013
0.027
0.024
0.026
0.026
0.032
0.023
0.052
0.132
0.215
0.359
0.518
0.62
0.76
0.782
0.498
-0.016
-0.519
-0.941
-1.057
-0.964
-0.775
-0.582
-0.327
-0.082
0.071
0.151
0.188
0.217
0.232
0.245
0.254
0.253
0.261
0.262
0.271
0.269
0.274
0.279
0.292
0.287
0.287
0.289
0.3
0.301
0.3
0.307
0.315
0.321
0.324
0.337
0.344
0.352
0.348
0.355
0.36
0.364
0.362
0.367
0.367
0.371
0.369
0.361
0.354
0.34
0.333
0.307
0.296
0.277
0.265
0.236
0.212
0.193
0.171
0.136
0.107
0.075
0.04
0.004
-0.031
-0.067
-0.095
-0.122
-0.159
-0.179
-0.202
-0.215
-0.237
-0.248
-0.256
-0.257
-0.268
-0.271
-0.274
-0.272
-0.272
-0.274
-0.269
-0.266
-0.258
-0.261
-0.253
-0.251
-0.236
-0.234
-0.228
-0.219
-0.21
-0.204
-0.201
-0.195
-0.186
-0.177
-0.172
-0.168
-0.16
-0.148
-0.15
-0.144
-0.145
-0.139
-0.141
-0.14
-0.135
-0.13
-0.126
-0.126
-0.12
-0.123
-0.117
-0.118
-0.117
-0.116
-0.115
-0.117
-0.118
-0.115
-0.108
-0.107
-0.104
-0.105
-0.101
-0.092
-0.089
-0.088
-0.09
-0.085
-0.089
-0.087
-0.088
-0.08
-0.081
-0.075
-0.074
-0.069
-0.065
-0.06
-0.059
-0.061
-0.055
-0.05
-0.048
-0.047
-0.039
-0.04
-0.037
-0.042
-0.034
-0.035
-0.029
-0.029
-0.024
-0.017
-0.011
-0.006
0.009
0.033
0.05
0.07
0.071
0.079
0.091
0.115
0.118
0.115
0.101
0.079
0.068
0.055
0.034
0.012
-0.004
-0.007
-0.009
-0.013
-0.02
-0.03
-0.028
-0.035
-0.028
-0.03
-0.028
-0.03
-0.024
-0.024
-0.021
-0.016
-0.008
-0.01
-0.007
0.001
-0.012
0.007
0.064
0.177
0.266
0.441
0.565
0.713
0.826
0.649
0.214
-0.248
-0.789
-1
-0.972
-0.859
-0.705
-0.539
-0.29
-0.084
0.066
0.136
0.176
0.185
0.2
0.213
0.223
0.226
0.231
0.242
0.247
0.249
0.248
0.257
0.262
0.268
0.263
0.271
0.273
0.279
0.281
0.289
0.293
0.301
0.301
0.304
0.315
0.325
0.33
0.325
0.336
0.341
0.346
0.343
0.35
0.351
0.35
0.338
0.332
0.318
0.308
0.286
0.268
0.25
0.232
0.208
0.177
0.158
0.129
0.092
0.058
0.029
-0.011
-0.042
-0.075
-0.105
-0.134
-0.155
-0.178
-0.206
-0.219
-0.237
-0.249
-0.262
-0.267
-0.273
-0.274
-0.284
-0.275
-0.274
-0.272
-0.274
-0.267
-0.259
-0.258
-0.255
-0.249
-0.242
-0.241
-0.231
-0.233
-0.221
-0.213
-0.205
-0.199
-0.186
-0.184
-0.176
-0.172
-0.168
-0.157
-0.154
-0.146
-0.143
-0.136
-0.13
-0.122
-0.126
-0.123
-0.123
-0.121
-0.12
-0.115
-0.114
-0.111
-0.115
-0.113
-0.109
-0.108
-0.108
-0.111
-0.103
-0.104
-0.101
-0.106
-0.107
-0.112
-0.108
-0.109
-0.104
-0.105
-0.1
-0.098
-0.092
-0.091
-0.09
-0.087
-0.083
-0.078
-0.077
-0.07
-0.069
-0.061
-0.066
-0.063
-0.063
-0.054
-0.046
-0.037
-0.02
0.001
0.026
0.04
0.05
0.045
0.067
0.082
0.096
0.094
0.081
0.054
0.039
0.036
0.014
-0.007
-0.026
-0.03
-0.036
-0.04
-0.05
-0.052
-0.058
-0.055
-0.058
-0.053
-0.051
-0.048
-0.052
-0.045
-0.043
-0.037
-0.034
-0.03
-0.022
-0.019
-0.019
-0.025
0.02
0.113
0.203
0.353
0.517
0.62
0.771
0.704
0.331
-0.139
-0.659
-1.027
-1.069
-0.967
-0.798
-0.629
-0.388
-0.138
0.033
0.12
0.162
0.193
0.202
0.22
0.23
0.232
0.239
0.246
0.249
0.248
0.249
0.252
0.263
0.26
0.267
0.272
0.285
0.285
0.289
0.296
0.302
0.306
0.311
0.314
0.316
0.332
0.335
0.344
0.35
0.358
0.36
0.366
0.366
0.372
0.361
0.353
0.342
0.334
0.321
0.3
0.282
0.259
0.244
0.215
0.19
0.161
0.137
0.104
0.069
0.033
0
-0.038
-0.069
-0.105
-0.13
-0.159
-0.186
-0.21
-0.228
-0.239
-0.254
-0.26
-0.269
-0.268
-0.274
-0.275
-0.275
-0.267
-0.267
-0.27
-0.27
-0.269
-0.263
-0.259
-0.254
-0.245
-0.234
-0.232
-0.223
-0.214
-0.2
-0.199
-0.19
-0.186
-0.173
-0.17
-0.166
-0.157
-0.149
-0.139
-0.136
-0.132
-0.128
-0.122
-0.126
-0.119
-0.12
-0.115
-0.116
-0.108
-0.107
-0.101
-0.105
-0.101
-0.097
-0.102
-0.096
-0.098
-0.102
-0.101
-0.093
-0.094
-0.088
-0.089
-0.085
-0.088
-0.085
-0.083
-0.079
-0.078
-0.074
-0.072
-0.072
-0.066
-0.064
-0.06
-0.06
-0.052
-0.054
-0.051
-0.05
-0.047
-0.044
-0.039
-0.035
-0.038
-0.036
-0.03
-0.024
-0.016
-0.001
0.021
0.049
0.063
0.079
0.073
0.083
0.096
0.115
0.117
0.104
0.089
0.061
0.052
0.038
0.02
-0.003
-0.009
-0.011
-0.016
-0.022
-0.026
-0.038
-0.037
-0.036
-0.034
-0.035
-0.035
-0.036
-0.033
-0.028
-0.025
-0.022
-0.018
-0.011
-0.011
-0.007
-0.021
0.011
0.086
0.182
0.307
0.482
0.588
0.735
0.762
0.516
0.008
-0.491
-0.964
-1.11
-1.044
-0.85
-0.662
-0.413
-0.151
0.024
0.115
0.163
0.188
0.204
0.224
0.23
0.232
0.239
0.25
0.262
0.256
0.262
0.264
0.273
0.274
0.278
0.278
0.287
0.289
0.29
0.291
0.302
0.309
0.313
0.318
0.324
0.333
0.332
0.339
0.34
0.351
0.353
0.353
0.354
0.359
0.356
0.348
0.349
0.337
0.328
0.306
0.29
0.274
0.261
0.236
0.211
0.183
0.159
0.123
0.095
0.057
0.024
-0.013
-0.052
-0.085
-0.111
-0.14
-0.17
-0.192
-0.217
-0.224
-0.242
-0.254
-0.265
-0.264
-0.27
-0.274
-0.278
-0.277
-0.275
-0.276
-0.272
-0.269
-0.26
-0.256
-0.25
-0.246
-0.231
-0.226
-0.22
-0.217
-0.204
-0.197
-0.188
-0.183
-0.171
-0.164
-0.161
-0.151
-0.152
-0.135
-0.134
-0.127
-0.123
-0.12
-0.125
-0.116
-0.116
-0.108
-0.108
-0.105
-0.106
-0.102
-0.094
-0.097
-0.089
-0.088
-0.081
-0.082
-0.077
-0.082
-0.075
-0.074
-0.072
-0.075
-0.07
-0.066
-0.065
-0.06
-0.059
-0.059
-0.061
-0.053
-0.053
-0.046
-0.044
-0.041
-0.044
-0.038
-0.039
-0.035
-0.037
-0.031
-0.028
-0.028
-0.025
-0.017
-0.01
0.002
0.031
0.051
0.071
0.076
0.078
0.085
0.11
0.121
0.13
0.114
0.094
0.069
0.065
0.042
0.025
0.01
0.002
0.002
-0.005
-0.006
-0.022
-0.023
-0.027
-0.02
-0.018
-0.021
-0.022
-0.019
-0.015
-0.014
-0.011
-0.002
0.005
0
0.004
-0.004
-0.012
0.014
0.112
0.198
0.353
0.515
0.613
0.746
0.747
0.431
-0.085
-0.593
-1.019
-1.119
-1.009
-0.806
-0.613
-0.336
-0.091
0.06
0.133
0.171
0.188
0.205
0.217
0.222
0.229
0.234
0.249
0.254
0.253
0.252
0.267
0.27
0.271
0.27
0.281
0.292
0.294
0.29
0.299
0.312
0.312
0.315
0.317
0.33
0.336
0.344
0.342
0.358
0.36
0.365
0.361
0.371
0.371
0.364
0.357
0.35
0.34
0.323
0.303
0.285
0.271
0.247
0.223
0.189
0.168
0.138
0.106
0.065
0.032
-0.001
-0.044
-0.082
-0.115
-0.142
-0.167
-0.198
-0.219
-0.229
-0.246
-0.263
-0.271
-0.277
-0.284
-0.284
-0.289
-0.29
-0.284
-0.282
-0.284
-0.283
-0.276
-0.278
-0.276
-0.271
-0.256
-0.253
-0.243
-0.24
-0.23
-0.228
-0.218
-0.214
-0.203
-0.198
-0.187
-0.181
-0.172
-0.162
-0.156
-0.151
-0.148
-0.136
-0.136
-0.133
-0.138
-0.131
-0.131
-0.127
-0.125
-0.123
-0.121
-0.122
-0.124
-0.128
-0.115
-0.118
-0.115
-0.113
-0.114
-0.116
-0.112
-0.111
-0.105
-0.104
-0.1
-0.099
-0.097
-0.094
-0.085
-0.082
-0.083
-0.077
-0.076
-0.072
-0.068
-0.063
-0.067
-0.061
-0.061
-0.054
-0.055
-0.046
-0.045
-0.045
-0.044
-0.039
-0.033
-0.034
-0.028
-0.03
-0.022
-0.011
0
-0.001
0.02
0.04
0.058
0.07
0.072
0.079
0.1
0.114
0.113
0.107
0.086
0.066
0.059
0.042
0.02
-0.003
-0.009
-0.011
-0.016
-0.021
-0.026
-0.031
-0.033
-0.031
-0.027
-0.031
-0.023
-0.027
-0.02
-0.025
-0.018
-0.016
-0.012
-0.013
-0.01
-0.008
-0.012
0.011
0.083
0.169
0.294
0.464
0.572
0.723
0.769
0.528
0.027
-0.465
-0.93
-1.069
-1.001
-0.809
-0.63
-0.371
-0.119
0.044
0.128
0.175
0.199
0.212
0.229
0.235
0.24
0.24
0.254
0.264
0.266
0.262
0.273
0.281
0.283
0.282
0.288
0.298
0.302
0.308
0.308
0.324
0.324
0.328
0.325
0.34
0.343
0.352
0.355
0.365
0.373
0.371
0.377
0.377
0.384
0.376
0.374
0.365
0.36
0.343
0.325
0.304
0.29
0.271
0.249
0.219
0.196
0.174
0.136
0.102
0.069
0.035
0.001
-0.038
-0.075
-0.099
-0.132
-0.159
-0.191
-0.203
-0.218
-0.233
-0.246
-0.254
-0.255
-0.262
-0.268
-0.266
-0.264
-0.26
-0.263
-0.266
-0.26
-0.258
-0.252
-0.251
-0.24
-0.232
-0.228
-0.223
-0.215
-0.205
-0.2
-0.193
-0.184
-0.173
-0.171
-0.163
-0.162
-0.155
-0.151
-0.142
-0.145
-0.141
-0.137
-0.133
-0.131
-0.13
-0.124
-0.128
-0.124
-0.125
-0.118
-0.12
-0.119
-0.122
-0.117
-0.118
-0.115
-0.123
-0.115
-0.111
-0.115
-0.114
-0.11
-0.104
-0.104
-0.099
-0.099
-0.093
-0.095
-0.088
-0.093
-0.087
-0.083
-0.076
-0.076
-0.075
-0.065
-0.063
-0.061
-0.054
-0.053
-0.053
-0.044
-0.047
-0.034
-0.035
-0.026
-0.03
-0.028
-0.026
-0.024
-0.026
-0.026
-0.02
-0.022
-0.017
-0.019
-0.011
-0.009
0.001
0.015
0.041
0.054
0.078
0.075
0.078
0.087
0.11
0.119
0.113
0.095
0.072
0.06
0.052
0.03
0.002
-0.007
-0.015
-0.018
-0.024
-0.029
-0.038
-0.044
-0.044
-0.04
-0.036
-0.036
-0.031
-0.031
-0.027
-0.03
-0.021
-0.014
-0.008
-0.009
-0.007
-0.015
-0.002
0.044
0.153
0.235
0.404
0.523
0.659
0.778
0.652
0.196
-0.285
-0.802
-1.051
-1.049
-0.883
-0.709
-0.503
-0.237
-0.035
0.08
0.134
0.161
0.178
0.194
0.204
0.21
0.222
0.23
0.242
0.242
0.245
0.246
0.256
0.256
0.263
0.266
0.277
0.284
0.286
0.294
0.304
0.318
0.312
0.321
0.323
0.336
0.33
0.344
0.349
0.364
0.363
0.367
0.372
0.376
0.377
0.365
0.358
0.354
0.347
0.327
0.31
0.295
0.282
0.258
0.236
0.209
0.188
0.154
0.121
0.087
0.053
0.019
-0.018
-0.049
-0.078
-0.105
-0.141
-0.157
-0.187
-0.195
-0.216
-0.225
-0.238
-0.246
-0.252
-0.262
-0.264
-0.265
-0.259
-0.262
-0.261
-0.256
-0.247
-0.246
-0.243
-0.241
-0.233
-0.233
-0.223
-0.217
-0.208
-0.201
-0.197
-0.188
-0.181
-0.171
-0.171
-0.161
-0.156
-0.146
-0.145
-0.138
-0.139
-0.131
-0.132
-0.132
-0.128
-0.123
-0.12
-0.119
-0.12
-0.115
-0.115
-0.117
-0.11
-0.111
-0.11
-0.11
-0.105
-0.11
-0.1
-0.102
-0.094
-0.091
-0.091
-0.091
-0.087
-0.081
-0.081
-0.078
-0.076
-0.069
-0.068
-0.062
-0.064
-0.056
-0.054
-0.055
-0.055
-0.051
-0.056
-0.052
-0.047
-0.046
-0.035
-0.041
-0.033
-0.035
-0.026
-0.029
-0.021
-0.02
-0.01
-0.002
0.024
0.037
0.053
0.063
0.062
0.072
0.094
0.11
0.112
0.102
0.083
0.056
0.043
0.028
0.006
-0.013
-0.028
-0.027
-0.032
-0.035
-0.041
-0.044
-0.043
-0.044
-0.039
-0.044
-0.037
-0.034
-0.033
-0.034
-0.031
-0.029
-0.02
-0.02
-0.016
-0.014
-0.024
0.001
0.068
0.174
0.281
0.469
0.57
0.742
0.794
0.543
0.088
-0.39
-0.875
-1.003
-0.95
-0.829
-0.691
-0.512
-0.263
-0.062
0.066
0.131
0.174
0.187
0.206
0.216
0.229
0.229
0.235
0.245
0.249
0.249
0.254
0.258
0.264
0.266
0.265
0.278
0.278
0.284
0.277
0.286
0.293
0.298
0.296
0.306
0.316
0.323
0.32
0.329
0.332
0.343
0.347
0.344
0.351
0.348
0.346
0.334
0.329
0.316
0.307
0.283
0.271
0.251
0.229
0.202
0.179
0.148
0.122
0.086
0.05
0.019
-0.012
-0.041
-0.085
-0.11
-0.137
-0.157
-0.191
-0.209
-0.223
-0.235
-0.246
-0.254
-0.258
-0.262
-0.261
-0.267
-0.268
-0.271
-0.266
-0.269
-0.261
-0.253
-0.246
-0.246
-0.241
-0.239
-0.231
-0.223
-0.212
-0.204
-0.201
-0.19
-0.185
-0.171
-0.171
-0.16
-0.16
-0.153
-0.144
-0.136
-0.136
-0.131
-0.122
-0.124
-0.119
-0.118
-0.115
-0.114
-0.102
-0.11
-0.106
-0.11
-0.104
-0.102
-0.103
-0.106
-0.101
-0.101
-0.097
-0.091
-0.09
-0.09
-0.085
-0.081
-0.083
-0.075
-0.079
-0.073
-0.072
-0.069
-0.07
-0.069
-0.068
-0.065
-0.067
-0.062
-0.057
-0.055
-0.043
-0.038
-0.024
-0.005
0.021
0.029
0.043
0.039
0.046
0.063
0.083
0.095
0.079
0.063
0.038
0.031
0.02
0.002
-0.022
-0.039
-0.041
-0.042
-0.05
-0.054
-0.059
-0.056
-0.06
-0.057
-0.058
-0.056
-0.049
-0.052
-0.045
-0.042
-0.032
-0.026
-0.022
-0.024
-0.018
-0.026
-0.01
0.04
0.155
0.238
0.418
0.541
0.673
0.798
0.625
0.168
-0.305
-0.841
-1.07
-1.048
-0.927
-0.756
-0.58
-0.321
-0.095
0.057
0.135
0.175
0.196
0.208
0.226
0.236
0.239
0.241
0.258
0.262
0.263
0.261
0.271
0.274
0.275
0.278
0.283
0.29
0.293
0.298
0.302
0.312
0.318
0.321
0.325
0.334
0.343
0.349
0.353
0.363
0.369
0.375
0.374
0.379
0.379
0.377
0.37
0.355
0.344
0.333
0.311
0.288
0.275
0.25
0.228
0.196
0.172
0.135
0.104
0.064
0.028
-0.01
-0.049
-0.08
-0.11
-0.133
-0.159
-0.182
-0.203
-0.214
-0.232
-0.239
-0.253
-0.254
-0.259
-0.26
-0.264
-0.264
-0.265
-0.262
-0.26
-0.259
-0.249
-0.249
-0.243
-0.243
-0.231
-0.227
-0.22
-0.22
-0.203
-0.197
-0.188
-0.181
-0.176
-0.166
-0.156
-0.152
-0.15
-0.136
-0.137
-0.132
-0.126
-0.117
-0.12
-0.114
-0.116
-0.11
-0.109
-0.107
-0.106
-0.108
-0.105
-0.106
-0.107
-0.11
-0.103
-0.103
-0.097
-0.094
-0.091
-0.094
-0.088
-0.085
-0.081
-0.085
-0.081
-0.08
-0.082
-0.073
-0.067
-0.066
-0.068
-0.062
-0.062
-0.054
-0.061
-0.056
-0.052
-0.047
-0.046
-0.043
-0.041
-0.036
-0.033
-0.032
-0.03
-0.028
-0.022
-0.023
-0.008
-0.01
0.002
0.018
0.048
0.057
0.076
0.077
0.08
0.094
0.108
0.118
0.109
0.1
0.069
0.053
0.045
0.025
0.005
-0.007
-0.016
-0.018
-0.023
-0.03
-0.039
-0.047
-0.043
-0.041
-0.042
-0.045
-0.043
-0.047
-0.037
-0.036
-0.029
-0.031
-0.022
-0.024
-0.019
-0.027
-0.023
0.027
0.14
0.218
0.393
0.532
0.65
0.767
0.69
0.278
-0.223
-0.743
-1.078
-1.118
-0.958
-0.768
-0.561
-0.287
-0.054
0.079
0.144
0.183
0.208
0.223
0.239
0.239
0.247
0.251
0.267
0.263
0.272
0.272
0.281
0.284
0.28
0.281
0.289
0.295
0.294
0.3
0.305
0.318
0.32
0.327
0.332
0.341
0.345
0.355
0.362
0.37
0.379
0.384
0.386
0.385
0.39
0.38
0.378
0.369
0.36
0.343
0.325
0.307
0.289
0.264
0.241
0.211
0.182
0.154
0.12
0.081
0.04
0.013
-0.03
-0.06
-0.096
-0.124
-0.156
-0.178
-0.203
-0.213
-0.233
-0.248
-0.264
-0.266
-0.267
-0.27
-0.275
-0.278
-0.274
-0.274
-0.271
-0.273
-0.264
-0.264
-0.253
-0.25
-0.243
-0.241
-0.232
-0.229
-0.223
-0.214
-0.209
-0.201
-0.197
-0.186
-0.182
-0.17
-0.168
-0.161
-0.161
-0.156
-0.161
-0.146
-0.146
-0.14
-0.137
-0.134
-0.129
-0.131
-0.126
-0.126
-0.115
-0.116
-0.115
-0.118
-0.111
-0.116
-0.117
-0.116
-0.108
-0.105
-0.105
-0.105
-0.103
-0.103
-0.1
-0.098
-0.094
-0.086
-0.086
-0.08
-0.082
-0.08
-0.083
-0.077
-0.076
-0.073
-0.073
-0.069
-0.066
-0.065
-0.055
-0.053
-0.046
-0.051
-0.044
-0.044
-0.043
-0.047
-0.039
-0.034
-0.028
-0.024
-0.021
-0.017
-0.01
-0.004
-0.006
-0.001
0.002
0.011
0.014
0.032
0.049
0.064
0.077
0.083
0.082
0.099
0.118
0.13
0.127
0.114
0.093
0.07
0.068
0.043
0.027
0.007
0.005
-0.004
-0.006
-0.017
-0.017
-0.027
-0.029
-0.03
-0.03
-0.029
-0.025
-0.024
-0.019
-0.018
-0.017
-0.011
-0.008
0.002
-0.007
-0.003
-0.009
0.032
0.129
0.206
0.372
0.517
0.625
0.745
0.721
0.364
-0.141
-0.654
-1.026
-1.099
-0.963
-0.772
-0.571
-0.302
-0.067
0.07
0.137
0.177
0.2
0.221
0.234
0.242
0.24
0.253
0.259
0.265
0.26
0.269
0.273
0.278
0.274
0.275
0.277
0.288
0.292
0.292
0.302
0.312
0.314
0.313
0.322
0.329
0.339
0.336
0.344
0.348
0.356
0.356
0.355
0.361
0.36
0.359
0.346
0.341
0.329
0.32
0.296
0.283
0.264
0.25
0.224
0.201
0.173
0.15
0.115
0.082
0.047
0.011
-0.025
-0.067
-0.097
-0.127
-0.149
-0.182
-0.201
-0.22
-0.236
-0.247
-0.259
-0.27
-0.265
-0.273
-0.279
-0.274
-0.273
-0.27
-0.273
-0.267
-0.267
-0.258
-0.263
-0.253
-0.252
-0.237
-0.235
-0.23
-0.221
-0.211
-0.202
-0.198
-0.187
-0.179
-0.172
-0.169
-0.16
-0.155
-0.149
-0.149
-0.141
-0.144
-0.136
-0.136
-0.135
-0.128
-0.126
-0.126
-0.124
-0.122
-0.119
-0.115
-0.118
-0.114
-0.112
-0.109
-0.112
-0.107
-0.111
-0.11
-0.112
-0.108
-0.105
-0.102
-0.106
-0.102
-0.093
-0.094
-0.08
-0.083
-0.076
-0.083
-0.078
-0.081
-0.072
-0.069
-0.061
-0.058
-0.058
-0.057
-0.052
-0.053
-0.051
-0.046
-0.047
-0.041
-0.045
-0.041
-0.04
-0.036
-0.035
-0.031
-0.031
-0.028
-0.031
-0.029
-0.027
-0.027
-0.016
-0.016
-0.01
-0.012
-0.003
-0.007
-0.001
-0.007
-0.002
-0.006
0.002
0.003
0.007
0.009
0.01
0.013
0.015
0.021
0.022
0.023
0.019
0.023
0.017
0.027
0.024
0.029
0.035
0.059
0.075
0.091
0.106
0.105
0.11
0.119
0.14
0.141
0.139
0.122
0.096
0.083
0.076
0.051
0.03
0.019
0.019
0.008
0.007
0.001
-0.004
-0.004
-0.005
0.001
-0.007
-0.006
-0.007
-0.001
0.001
0.005
0.004
0.009
0.006
0.008
0.007
0
0.013
0.07
0.165
0.256
0.425
0.556
0.697
0.78
0.649
0.178
-0.303
-0.802
-1.03
-1.03
-0.846
-0.671
-0.443
-0.189
0.006
0.107
0.15
0.185
0.197
0.216
0.225
0.233
0.235
0.25
0.257
0.256
0.253
0.258
0.264
0.265
0.266
0.268
0.278
0.282
0.282
0.283
0.299
0.301
0.306
0.31
0.323
0.331
0.332
0.337
0.342
0.352
0.356
0.356
0.359
0.368
0.363
0.36
0.348
0.341
0.325
0.314
0.291
0.278
0.26
0.24
0.216
0.198
0.178
0.15
0.121
0.087
0.058
0.022
-0.018
-0.064
-0.092
-0.131
-0.16
-0.195
-0.212
-0.231
-0.249
-0.265
-0.277
-0.283
-0.289
-0.293
-0.299
-0.292
-0.294
-0.297
-0.299
-0.292
-0.293
-0.287
-0.284
-0.274
-0.266
-0.261
-0.25
-0.244
-0.232
-0.228
-0.218
-0.212
-0.203
-0.199
-0.185
-0.183
-0.175
-0.169
-0.161
-0.158
-0.148
-0.146
-0.14
-0.136
-0.133
-0.125
-0.126
-0.118
-0.121
-0.116
-0.12
-0.115
-0.116
-0.114
-0.115
-0.111
-0.109
-0.104
-0.102
-0.101
-0.097
-0.101
-0.093
-0.095
-0.09
-0.092
-0.09
-0.088
-0.079
-0.081
-0.075
-0.076
-0.073
-0.073
-0.074
-0.07
-0.069
-0.067
-0.063
-0.064
-0.061
-0.058
-0.06
-0.053
-0.047
-0.044
-0.039
-0.037
-0.036
-0.032
-0.024
-0.026
-0.022
-0.02
-0.009
-0.009
0.001
0
0.009
0.015
0.034
0.051
0.07
0.08
0.091
0.089
0.104
0.121
0.133
0.137
0.124
0.1
0.074
0.073
0.049
0.034
0.01
0.008
0.002
-0.001
-0.017
-0.024
-0.027
-0.032
-0.032
-0.031
-0.032
-0.033
-0.03
-0.025
-0.021
-0.019
-0.01
-0.009
-0.004
-0.011
-0.012
-0.004
0.049
0.152
0.233
0.407
0.544
0.682
0.815
0.705
0.271
-0.197
-0.735
-1.004
-1.007
-0.869
-0.709
-0.533
-0.282
-0.068
0.065
0.131
0.167
0.187
0.202
0.217
0.226
0.225
0.239
0.243
0.252
0.251
0.259
0.261
0.266
0.269
0.273
0.276
0.28
0.289
0.287
0.292
0.301
0.311
0.303
0.313
0.317
0.322
0.329
0.339
0.35
0.354
0.36
0.361
0.368
0.365
0.361
0.348
0.348
0.338
0.33
0.306
0.295
0.271
0.257
0.232
0.21
0.182
0.152
0.122
0.078
0.047
0.011
-0.023
-0.063
-0.091
-0.123
-0.149
-0.18
-0.205
-0.229
-0.239
-0.254
-0.267
-0.278
-0.281
-0.281
-0.289
-0.285
-0.288
-0.285
-0.291
-0.284
-0.283
-0.268
-0.268
-0.265
-0.261
-0.249
-0.242
-0.233
-0.225
-0.217
-0.203
-0.203
-0.194
-0.18
-0.179
-0.174
-0.156
-0.154
-0.15
-0.141
-0.135
-0.134
-0.131
-0.125
-0.122
-0.119
-0.12
-0.119
-0.12
-0.115
-0.115
-0.109
-0.115
-0.111
-0.11
-0.105
-0.105
-0.101
-0.1
-0.099
-0.101
-0.094
-0.092
-0.09
-0.093
-0.093
-0.089
-0.087
-0.082
-0.081
-0.07
-0.074
-0.071
-0.072
-0.071
-0.065
-0.06
-0.055
-0.047
-0.025
-0.001
0.014
0.023
0.023
0.023
0.054
0.075
0.091
0.076
0.065
0.034
0.028
0.02
-0.001
-0.024
-0.039
-0.039
-0.043
-0.048
-0.06
-0.064
-0.073
-0.064
-0.063
-0.056
-0.061
-0.054
-0.058
-0.054
-0.044
-0.041
-0.033
-0.034
-0.029
-0.035
-0.035
-0.011
0.058
0.162
0.28
0.469
0.582
0.733
0.771
0.511
0.062
-0.421
-0.908
-1.041
-0.992
-0.874
-0.724
-0.536
-0.288
-0.073
0.061
0.136
0.168
0.186
0.195
0.208
0.222
0.224
0.23
0.237
0.245
0.236
0.244
0.246
0.261
0.259
0.258
0.262
0.267
0.263
0.273
0.277
0.288
0.29
0.293
0.296
0.301
0.313
0.317
0.325
0.335
0.347
0.344
0.351
0.347
0.351
0.345
0.338
0.329
0.321
0.31
0.295
0.275
0.262
0.242
0.209
0.189
0.162
0.136
0.099
0.067
0.027
0
-0.036
-0.071
-0.104
-0.13
-0.156
-0.182
-0.201
-0.218
-0.227
-0.239
-0.247
-0.256
-0.252
-0.257
-0.262
-0.258
-0.255
-0.251
-0.245
-0.24
-0.235
-0.229
-0.222
-0.218
-0.215
-0.213
-0.212
-0.198
-0.196
-0.186
-0.188
-0.174
-0.169
-0.162
-0.156
-0.152
-0.145
-0.139
-0.137
-0.132
-0.126
-0.122
-0.115
-0.117
-0.108
-0.111
-0.102
-0.107
-0.098
-0.103
-0.099
-0.099
-0.096
-0.09
-0.088
-0.084
-0.089
-0.083
-0.082
-0.08
-0.085
-0.08
-0.08
-0.074
-0.075
-0.065
-0.065
-0.061
-0.058
-0.049
-0.043
-0.039
-0.026
-0.009
0.015
0.027
0.042
0.039
0.049
0.071
0.09
0.087
0.083
0.061
0.035
0.034
0.017
-0.002
-0.028
-0.036
-0.044
-0.042
-0.052
-0.055
-0.068
-0.066
-0.067
-0.063
-0.064
-0.062
-0.056
-0.053
-0.05
-0.047
-0.04
-0.036
-0.034
-0.034
-0.029
-0.039
-0.008
0.073
0.178
0.301
0.476
0.579
0.727
0.744
0.463
-0.035
-0.538
-1.001
-1.112
-1.046
-0.876
-0.707
-0.488
-0.224
-0.02
0.091
0.144
0.175
0.195
0.209
0.22
0.226
0.232
0.235
0.246
0.251
0.253
0.253
0.267
0.266
0.273
0.275
0.281
0.284
0.284
0.285
0.295
0.301
0.305
0.311
0.317
0.326
0.328
0.335
0.336
0.351
0.355
0.359
0.362
0.369
0.362
0.354
0.347
0.335
0.326
0.311
0.29
0.269
0.249
0.223
0.202
0.177
0.156
0.123
0.09
0.048
0.019
-0.02
-0.056
-0.085
-0.11
-0.141
-0.165
-0.192
-0.21
-0.216
-0.233
-0.242
-0.251
-0.248
-0.257
-0.256
-0.255
-0.251
-0.249
-0.251
-0.25
-0.245
-0.236
-0.232
-0.225
-0.223
-0.216
-0.21
-0.201
-0.193
-0.178
-0.179
-0.173
-0.165
-0.151
-0.145
-0.138
-0.134
-0.131
-0.123
-0.117
-0.115
-0.116
-0.105
-0.105
-0.097
-0.104
-0.089
-0.093
-0.092
-0.09
-0.089
-0.093
-0.091
-0.089
-0.091
-0.084
-0.082
-0.083
-0.082
-0.079
-0.086
-0.078
-0.078
-0.069
-0.067
-0.065
-0.065
-0.064
-0.059
-0.052
-0.052
-0.052
-0.041
-0.038
-0.026
-0.025
-0.001
0.025
0.043
0.053
0.058
0.06
0.082
0.096
0.108
0.103
0.093
0.066
0.042
0.043
0.014
0.001
-0.019
-0.023
-0.035
-0.035
-0.043
-0.047
-0.055
-0.053
-0.049
-0.052
-0.05
-0.052
-0.046
-0.048
-0.039
-0.036
-0.028
-0.023
-0.02
-0.023
-0.019
-0.023
0.02
0.121
0.202
0.377
0.532
0.635
0.76
0.706
0.31
-0.199
-0.725
-1.081
-1.15
-0.994
-0.798
-0.588
-0.314
-0.073
0.066
0.141
0.178
0.198
0.214
0.23
0.24
0.239
0.249
0.257
0.261
0.259
0.266
0.271
0.274
0.274
0.276
0.282
0.287
0.295
0.295
0.305
0.316
0.324
0.325
0.333
0.337
0.345
0.351
0.361
0.368
0.379
0.379
0.382
0.386
0.385
0.381
0.364
0.363
0.349
0.34
0.313
0.297
0.277
0.26
0.232
0.208
0.181
0.158
0.125
0.085
0.05
0.014
-0.026
-0.065
-0.096
-0.126
-0.156
-0.188
-0.199
-0.221
-0.236
-0.254
-0.264
-0.274
-0.28
-0.281
-0.286
-0.285
-0.281
-0.275
-0.278
-0.275
-0.27
-0.267
-0.263
-0.249
-0.242
-0.232
-0.231
-0.223
-0.214
-0.205
-0.198
-0.192
-0.184
-0.177
-0.17
-0.167
-0.161
-0.158
-0.143
-0.144
-0.135
-0.137
-0.13
-0.124
-0.123
-0.122
-0.119
-0.114
-0.113
-0.105
-0.104
-0.103
-0.103
-0.101
-0.104
-0.095
-0.1
-0.101
-0.099
-0.096
-0.096
-0.094
-0.096
-0.09
-0.089
-0.085
-0.083
-0.081
-0.074
-0.072
-0.066
-0.071
-0.063
-0.065
-0.062
-0.062
-0.058
-0.052
-0.048
-0.044
-0.041
-0.037
-0.036
-0.025
-0.017
0.013
0.027
0.049
0.053
0.056
0.065
0.087
0.092
0.096
0.077
0.056
0.037
0.032
0.011
-0.012
-0.026
-0.034
-0.036
-0.047
-0.047
-0.065
-0.068
-0.068
-0.066
-0.067
-0.063
-0.057
-0.061
-0.052
-0.051
-0.045
-0.041
-0.032
-0.035
-0.024
-0.029
-0.032
-0.026
0.027
0.126
0.218
0.384
0.519
0.648
0.753
0.645
0.182
-0.299
-0.818
-1.082
-1.099
-0.915
-0.734
-0.498
-0.232
-0.018
0.085
0.143
0.171
0.192
0.214
0.225
0.231
0.236
0.251
0.264
0.272
0.262
0.274
0.278
0.281
0.274
0.282
0.29
0.297
0.298
0.305
0.317
0.325
0.329
0.332
0.341
0.352
0.361
0.357
0.368
0.375
0.385
0.381
0.386
0.392
0.39
0.385
0.377
0.369
0.357
0.34
0.32
0.305
0.283
0.265
0.236
0.212
0.186
0.163
0.123
0.085
0.046
0.008
-0.027
-0.064
-0.099
-0.127
-0.15
-0.181
-0.198
-0.217
-0.232
-0.253
-0.262
-0.271
-0.271
-0.283
-0.287
-0.286
-0.286
-0.285
-0.284
-0.277
-0.276
-0.266
-0.268
-0.259
-0.252
-0.239
-0.237
-0.228
-0.227
-0.216
-0.217
-0.207
-0.196
-0.185
-0.182
-0.18
-0.169
-0.167
-0.15
-0.148
-0.146
-0.14
-0.133
-0.136
-0.13
-0.131
-0.129
-0.13
-0.124
-0.122
-0.116
-0.113
-0.115
-0.114
-0.113
-0.108
-0.11
-0.1
-0.103
-0.097
-0.1
-0.094
-0.09
-0.085
-0.088
-0.086
-0.085
-0.088
-0.084
-0.085
-0.081
-0.08
-0.081
-0.082
-0.074
-0.069
-0.065
-0.065
-0.059
-0.059
-0.056
-0.058
-0.051
-0.05
-0.05
-0.045
-0.046
-0.041
-0.04
-0.034
-0.035
-0.027
-0.022
-0.005
0.011
0.036
0.05
0.058
0.058
0.067
0.083
0.089
0.098
0.084
0.07
0.041
0.039
0.019
-0.003
-0.023
-0.027
-0.034
-0.037
-0.043
-0.051
-0.048
-0.049
-0.049
-0.051
-0.048
-0.047
-0.04
-0.035
-0.028
-0.027
-0.015
-0.01
-0.007
-0.001
-0.005
-0.015
-0.002
0.06
0.162
0.255
0.417
0.55
0.676
0.774
0.614
0.143
-0.352
-0.851
-1.075
-1.068
-0.882
-0.703
-0.467
-0.207
-0.003
0.097
0.154
0.18
0.202
0.218
0.227
0.228
0.23
0.238
0.252
0.25
0.251
0.257
0.267
0.267
0.263
0.272
0.279
0.282
0.276
0.287
0.294
0.309
0.307
0.31
0.318
0.324
0.324
0.331
0.339
0.355
0.359
0.359
0.364
0.366
0.366
0.352
0.355
0.345
0.34
0.321
0.307
0.285
0.273
0.251
0.228
0.208
0.184
0.157
0.12
0.088
0.052
0.024
-0.021
-0.055
-0.089
-0.115
-0.145
-0.169
-0.193
-0.205
-0.224
-0.242
-0.247
-0.254
-0.259
-0.27
-0.266
-0.269
-0.261
-0.266
-0.258
-0.267
-0.257
-0.257
-0.253
-0.245
-0.239
-0.231
-0.222
-0.214
-0.207
-0.194
-0.192
-0.179
-0.179
-0.167
-0.168
-0.161
-0.162
-0.149
-0.148
-0.139
-0.137
-0.129
-0.124
-0.124
-0.122
-0.115
-0.107
-0.109
-0.105
-0.102
-0.1
-0.103
-0.098
-0.104
-0.097
-0.099
-0.101
-0.104
-0.102
-0.104
-0.105
-0.094
-0.096
-0.086
-0.089
-0.088
-0.088
-0.078
-0.083
-0.078
-0.078
-0.07
-0.071
-0.066
-0.058
-0.06
-0.057
-0.053
-0.045
-0.044
-0.038
-0.041
-0.035
-0.029
-0.028
-0.024
-0.014
-0.017
-0.016
-0.006
-0.001
0.02
0.044
0.067
0.076
0.081
0.076
0.094
0.112
0.126
0.124
0.115
0.088
0.075
0.065
0.047
0.021
0
-0.005
-0.004
-0.01
-0.02
-0.022
-0.032
-0.031
-0.031
-0.03
-0.033
-0.03
-0.03
-0.021
-0.022
-0.012
-0.007
-0.004
-0.002
-0.004
0.002
-0.005
0.032
0.109
0.214
0.344
0.517
0.614
0.778
0.778
0.463
-0.004
-0.503
-0.938
-1.018
-0.939
-0.79
-0.648
-0.433
-0.193
-0.009
0.1
0.15
0.184
0.196
0.215
0.225
0.23
0.233
0.246
0.254
0.257
0.26
0.262
0.267
0.269
0.273
0.275
0.286
0.284
0.294
0.293
0.309
0.309
0.315
0.314
0.325
0.337
0.344
0.348
0.35
0.363
0.367
0.371
0.366
0.376
0.372
0.368
0.358
0.352
0.342
0.322
0.301
0.281
0.269
0.244
0.222
0.192
0.171
0.138
0.105
0.064
0.03
-0.007
-0.039
-0.076
-0.106
-0.136
-0.16
-0.183
-0.199
-0.216
-0.229
-0.235
-0.251
-0.252
-0.263
-0.266
-0.275
-0.271
-0.27
-0.262
-0.259
-0.257
-0.254
-0.249
-0.249
-0.247
-0.233
-0.224
-0.217
-0.214
-0.197
-0.189
-0.178
-0.178
-0.166
-0.162
-0.151
-0.15
-0.144
-0.136
-0.132
-0.126
-0.127
-0.115
-0.111
-0.104
-0.111
-0.11
-0.11
-0.104
-0.108
-0.102
-0.104
-0.1
-0.101
-0.096
-0.096
-0.096
-0.091
-0.091
-0.088
-0.088
-0.079
-0.077
-0.076
-0.081
-0.076
-0.075
-0.076
-0.071
-0.067
-0.061
-0.064
-0.061
-0.059
-0.058
-0.061
-0.054
-0.057
-0.053
-0.056
-0.052
-0.047
-0.036
-0.03
-0.026
-0.006
0.019
0.035
0.051
0.054
0.054
0.073
0.086
0.096
0.089
0.083
0.054
0.042
0.035
0.019
-0.003
-0.022
-0.03
-0.038
-0.038
-0.049
-0.048
-0.054
-0.058
-0.054
-0.052
-0.052
-0.05
-0.054
-0.046
-0.046
-0.04
-0.036
-0.034
-0.03
-0.027
-0.026
-0.03
0.002
0.09
0.189
0.332
0.505
0.6
0.763
0.74
0.42
-0.064
-0.568
-1
-1.081
-1.001
-0.839
-0.679
-0.449
-0.197
-0.004
0.101
0.151
0.182
0.194
0.211
0.219
0.227
0.232
0.242
0.249
0.255
0.253
0.259
0.273
0.279
0.281
0.28
0.293
0.292
0.299
0.298
0.31
0.314
0.316
0.318
0.327
0.335
0.344
0.348
0.356
0.365
0.369
0.373
0.374
0.383
0.376
0.373
0.366
0.359
0.344
0.332
0.305
0.289
0.27
0.251
0.224
0.195
0.166
0.131
0.1
0.063
0.034
-0.007
-0.046
-0.085
-0.114
-0.146
-0.166
-0.191
-0.214
-0.227
-0.243
-0.253
-0.264
-0.263
-0.269
-0.273
-0.279
-0.27
-0.274
-0.269
-0.27
-0.263
-0.262
-0.258
-0.258
-0.254
-0.246
-0.244
-0.233
-0.229
-0.215
-0.209
-0.198
-0.194
-0.18
-0.182
-0.17
-0.17
-0.164
-0.156
-0.154
-0.15
-0.148
-0.138
-0.133
-0.127
-0.132
-0.126
-0.128
-0.124
-0.124
-0.12
-0.127
-0.12
-0.124
-0.125
-0.123
-0.121
-0.118
-0.115
-0.114
-0.11
-0.108
-0.108
-0.104
-0.101
-0.098
-0.1
-0.087
-0.089
-0.083
-0.09
-0.083
-0.079
-0.078
-0.075
-0.073
-0.066
-0.062
-0.056
-0.058
-0.05
-0.054
-0.049
-0.05
-0.046
-0.041
-0.042
-0.04
-0.035
-0.034
-0.031
-0.024
-0.026
-0.023
-0.019
-0.012
-0.018
-0.013
-0.013
-0.004
0.003
0.016
0.039
0.058
0.07
0.08
0.081
0.088
0.112
0.118
0.127
0.116
0.099
0.067
0.065
0.046
0.027
0.006
-0.007
-0.017
-0.022
-0.029
-0.038
-0.044
-0.044
-0.045
-0.046
-0.045
-0.045
-0.042
-0.041
-0.035
-0.035
-0.028
-0.019
-0.021
-0.015
-0.012
-0.021
0
0.076
0.169
0.299
0.46
0.574
0.702
0.755
0.532
0.031
-0.465
-0.943
-1.11
-1.055
-0.856
-0.672
-0.422
-0.167
0.02
0.113
0.162
0.184
0.208
0.219
0.232
0.231
0.243
0.248
0.259
0.256
0.256
0.257
0.265
0.267
0.265
0.276
0.284
0.293
0.288
0.295
0.305
0.314
0.312
0.322
0.327
0.34
0.34
0.342
0.348
0.36
0.368
0.367
0.374
0.378
0.38
0.37
0.363
0.349
0.346
0.324
0.311
0.291
0.278
0.255
0.228
0.205
0.18
0.147
0.113
0.081
0.045
0.009
-0.035
-0.068
-0.107
-0.137
-0.161
-0.186
-0.211
-0.23
-0.251
-0.262
-0.273
-0.277
-0.28
-0.288
-0.284
-0.29
-0.279
-0.283
-0.281
-0.282
-0.273
-0.269
-0.26
-0.255
-0.243
-0.235
-0.226
-0.217
-0.21
-0.205
-0.197
-0.187
-0.183
-0.171
-0.167
-0.156
-0.153
-0.144
-0.144
-0.138
-0.133
-0.126
-0.124
-0.122
-0.117
-0.12
-0.115
-0.113
-0.11
-0.114
-0.107
-0.11
-0.11
-0.11
-0.108
-0.109
-0.104
-0.104
-0.106
-0.1
-0.103
-0.097
-0.097
-0.092
-0.093
-0.09
-0.09
-0.081
-0.086
-0.082
-0.084
-0.072
-0.073
-0.07
-0.068
-0.064
-0.061
-0.058
-0.053
-0.05
-0.042
-0.048
-0.041
-0.041
-0.037
-0.038
-0.028
-0.029
-0.027
-0.027
-0.021
-0.016
-0.015
-0.013
-0.012
-0.011
-0.011
-0.006
-0.008
0.001
-0.002
0.002
0.006
0.007
0.004
0.007
0.006
0.016
0.024
0.035
0.062
0.076
0.098
0.103
0.106
0.113
0.134
0.14
0.137
0.121
0.102
0.086
0.079
0.062
0.04
0.021
0.011
0.012
0.003
0
-0.012
-0.012
-0.014
-0.012
-0.017
-0.015
-0.014
-0.008
-0.006
-0.004
-0.003
0.003
0.014
0.014
0.017
0.013
0.022
0.063
0.171
0.236
0.414
0.544
0.658
0.775
0.717
0.3
-0.186
-0.698
-1.01
-1.06
-0.901
-0.716
-0.504
-0.236
-0.023
0.096
0.154
0.187
0.205
0.218
0.233
0.239
0.24
0.246
0.256
0.26
0.261
0.258
0.272
0.271
0.271
0.271
0.279
0.282
0.284
0.282
0.29
0.3
0.299
0.306
0.312
0.328
0.33
0.339
0.34
0.352
0.354
0.36
0.353
0.361
0.359
0.359
0.35
0.347
0.339
0.322
0.302
0.283
0.268
0.247
0.228
0.196
0.18
0.147
0.119
0.078
0.05
0.014
-0.026
-0.065
-0.096
-0.127
-0.16
-0.188
-0.217
-0.228
-0.251
-0.26
-0.278
-0.28
-0.286
-0.291
-0.298
-0.292
-0.296
-0.294
-0.291
-0.286
-0.281
-0.277
-0.272
-0.269
-0.259
-0.256
-0.246
-0.244
-0.233
-0.228
-0.217
-0.213
-0.199
-0.193
-0.187
-0.183
-0.178
-0.175
-0.173
-0.172
-0.167
-0.157
-0.152
-0.152
-0.157
-0.144
-0.148
-0.138
-0.138
-0.133
-0.131
-0.126
-0.126
-0.127
-0.127
-0.13
-0.122
-0.12
-0.121
-0.124
-0.115
-0.116
-0.113
-0.109
-0.105
-0.107
-0.106
-0.101
-0.099
-0.1
-0.096
-0.09
-0.088
-0.083
-0.078
-0.071
-0.073
-0.066
-0.066
-0.062
-0.06
-0.058
-0.051
-0.05
-0.051
-0.045
-0.042
-0.041
-0.031
-0.031
-0.026
-0.025
-0.02
-0.025
-0.015
-0.02
-0.014
-0.011
-0.012
-0.012
-0.013
-0.01
-0.007
-0.004
-0.002
0.001
0.003
0.005
0.008
0.017
0.026
0.033
0.047
0.068
0.077
0.092
0.096
0.098
0.119
0.138
0.144
0.137
0.129
0.095
0.084
0.072
0.055
0.029
0.02
0.015
0.01
0
-0.005
-0.005
-0.012
-0.013
-0.009
-0.006
-0.01
-0.005
-0.007
-0.002
-0.006
0.001
0.004
0.009
0.008
0.007
0.001
0.023
0.101
0.192
0.322
0.485
0.597
0.746
0.788
0.538
0.047
-0.452
-0.921
-1.046
-0.977
-0.799
-0.637
-0.411
-0.169
0.018
0.109
0.157
0.177
0.193
0.205
0.215
0.211
0.223
0.226
0.24
0.238
0.242
0.245
0.259
0.256
0.254
0.266
0.269
0.275
0.273
0.278
0.287
0.301
0.3
0.305
0.304
0.317
0.324
0.326
0.336
0.34
0.344
0.343
0.352
0.357
0.362
0.353
0.353
0.343
0.34
0.322
0.315
0.293
0.276
0.254
0.236
0.213
0.189
0.157
0.126
0.096
0.059
0.025
-0.019
-0.047
-0.088
-0.117
-0.156
-0.179
-0.2
-0.212
-0.232
-0.249
-0.261
-0.263
-0.262
-0.274
-0.273
-0.271
-0.27
-0.275
-0.268
-0.266
-0.262
-0.258
-0.255
-0.248
-0.234
-0.23
-0.228
-0.221
-0.212
-0.2
-0.199
-0.188
-0.182
-0.175
-0.173
-0.157
-0.158
-0.152
-0.149
-0.149
-0.139
-0.136
-0.134
-0.129
-0.131
-0.126
-0.126
-0.129
-0.121
-0.126
-0.124
-0.126
-0.12
-0.12
-0.117
-0.116
-0.113
-0.114
-0.11
-0.108
-0.111
-0.105
-0.107
-0.098
-0.102
-0.094
-0.092
-0.087
-0.094
-0.087
-0.091
-0.087
-0.084
-0.086
-0.085
-0.085
-0.086
-0.085
-0.083
-0.077
-0.076
-0.077
-0.068
-0.067
-0.062
-0.064
-0.056
-0.054
-0.053
-0.05
-0.049
-0.049
-0.042
-0.031
-0.029
-0.01
0.013
0.025
0.036
0.053
0.053
0.077
0.085
0.099
0.096
0.087
0.06
0.048
0.043
0.025
0.003
-0.02
-0.024
-0.027
-0.03
-0.034
-0.033
-0.046
-0.04
-0.039
-0.038
-0.037
-0.033
-0.032
-0.029
-0.021
-0.018
-0.009
-0.01
-0.007
-0.012
-0.015
0.002
0.071
0.182
0.286
0.465
0.587
0.735
0.805
0.597
0.14
-0.332
-0.845
-1.021
-0.981
-0.867
-0.716
-0.544
-0.299
-0.081
0.06
0.134
0.172
0.195
0.204
0.215
0.224
0.234
0.24
0.249
0.257
0.259
0.269
0.262
0.27
0.265
0.275
0.276
0.282
0.283
0.285
0.295
0.299
0.305
0.304
0.312
0.319
0.331
0.333
0.336
0.339
0.35
0.35
0.358
0.36
0.363
0.355
0.346
0.342
0.334
0.321
0.302
0.286
0.267
0.248
0.224
0.206
0.182
0.157
0.12
0.09
0.051
0.021
-0.013
-0.05
-0.083
-0.115
-0.144
-0.171
-0.192
-0.213
-0.225
-0.238
-0.249
-0.26
-0.258
-0.265
-0.262
-0.267
-0.262
-0.263
-0.256
-0.25
-0.249
-0.243
-0.241
-0.231
-0.229
-0.221
-0.218
-0.208
-0.205
-0.193
-0.188
-0.181
-0.181
-0.169
-0.164
-0.16
-0.157
-0.152
-0.143
-0.139
-0.134
-0.135
-0.13
-0.129
-0.125
-0.131
-0.122
-0.124
-0.121
-0.119
-0.114
-0.108
-0.107
-0.104
-0.101
-0.097
-0.102
-0.098
-0.099
-0.092
-0.09
-0.084
-0.085
-0.079
-0.075
-0.07
-0.072
-0.066
-0.065
-0.065
-0.062
-0.065
-0.059
-0.061
-0.056
-0.061
-0.056
-0.056
-0.048
-0.047
-0.041
-0.042
-0.038
-0.027
-0.022
-0.012
0.01
0.034
0.046
0.06
0.051
0.068
0.082
0.099
0.097
0.087
0.065
0.043
0.032
0.021
0.002
-0.017
-0.026
-0.031
-0.032
-0.042
-0.042
-0.05
-0.046
-0.048
-0.041
-0.045
-0.04
-0.036
-0.034
-0.031
-0.031
-0.025
-0.021
-0.017
-0.016
-0.019
-0.025
0.011
0.092
0.186
0.322
0.5
0.6
0.753
0.745
0.441
-0.06
-0.564
-1.009
-1.1
-1.019
-0.849
-0.677
-0.438
-0.18
0.006
0.102
0.149
0.185
0.199
0.215
0.22
0.222
0.228
0.24
0.248
0.248
0.246
0.251
0.268
0.265
0.261
0.264
0.279
0.281
0.28
0.287
0.296
0.306
0.311
0.316
0.322
0.334
0.334
0.348
0.35
0.358
0.36
0.365
0.366
0.372
0.37
0.359
0.35
0.346
0.336
0.321
0.298
0.282
0.266
0.237
0.213
0.188
0.162
0.126
0.091
0.055
0.024
-0.009
-0.044
-0.08
-0.111
-0.133
-0.165
-0.188
-0.209
-0.222
-0.242
-0.249
-0.262
-0.265
-0.273
-0.272
-0.274
-0.268
-0.27
-0.272
-0.275
-0.268
-0.264
-0.258
-0.251
-0.247
-0.238
-0.231
-0.219
-0.215
-0.204
-0.201
-0.195
-0.189
-0.178
-0.168
-0.166
-0.159
-0.154
-0.145
-0.143
-0.135
-0.134
-0.124
-0.123
-0.117
-0.118
-0.111
-0.107
-0.105
-0.104
-0.101
-0.101
-0.102
-0.1
-0.101
-0.094
-0.096
-0.09
-0.094
-0.089
-0.092
-0.086
-0.085
-0.076
-0.074
-0.071
-0.066
-0.064
-0.061
-0.058
-0.059
-0.054
-0.049
-0.044
-0.036
-0.042
-0.033
-0.034
-0.027
-0.032
-0.026
-0.02
-0.011
0.004
0.029
0.046
0.059
0.065
0.061
0.073
0.089
0.105
0.101
0.09
0.065
0.05
0.04
0.022
0.001
-0.016
-0.021
-0.028
-0.036
-0.04
-0.043
-0.052
-0.049
-0.049
-0.047
-0.048
-0.037
-0.039
-0.03
-0.027
-0.021
-0.021
-0.011
-0.007
-0.005
-0.007
-0.008
0.036
0.138
0.219
0.391
0.54
0.645
0.777
0.704
0.313
-0.186
-0.711
-1.052
-1.098
-0.95
-0.761
-0.556
-0.288
-0.051
0.08
0.15
0.175
0.202
0.215
0.235
0.238
0.235
0.242
0.252
0.255
0.254
0.257
0.261
0.272
0.269
0.278
0.286
0.293
0.29
0.299
0.305
0.317
0.321
0.323
0.337
0.344
0.353
0.356
0.363
0.368
0.378
0.375
0.38
0.382
0.387
0.374
0.369
0.362
0.359
0.339
0.318
0.298
0.28
0.258
0.229
0.209
0.182
0.161
0.124
0.093
0.055
0.029
-0.018
-0.056
-0.087
-0.118
-0.151
-0.181
-0.199
-0.218
-0.23
-0.251
-0.262
-0.275
-0.272
-0.285
-0.282
-0.286
-0.283
-0.29
-0.29
-0.29
-0.282
-0.278
-0.277
-0.27
-0.264
-0.254
-0.245
-0.242
-0.236
-0.221
-0.217
-0.208
-0.207
-0.196
-0.191
-0.188
-0.178
-0.17
-0.163
-0.164
-0.16
-0.165
-0.157
-0.151
-0.145
-0.143
-0.137
-0.141
-0.135
-0.135
-0.136
-0.137
-0.133
-0.131
-0.133
-0.128
-0.126
-0.117
-0.12
-0.117
-0.12
-0.113
-0.112
-0.108
-0.111
-0.102
-0.103
-0.096
-0.096
-0.096
-0.095
-0.093
-0.088
-0.082
-0.082
-0.08
-0.073
-0.072
-0.064
-0.06
-0.048
-0.041
-0.03
-0.005
0.024
0.037
0.052
0.051
0.059
0.076
0.092
0.101
0.088
0.075
0.045
0.047
0.027
0.01
-0.013
-0.019
-0.025
-0.032
-0.038
-0.04
-0.05
-0.053
-0.041
-0.041
-0.038
-0.04
-0.042
-0.038
-0.031
-0.03
-0.021
-0.019
-0.011
-0.011
-0.015
-0.02
0.005
0.075
0.161
0.282
0.455
0.569
0.712
0.785
0.562
0.076
-0.427
-0.91
-1.076
-1.026
-0.835
-0.651
-0.4
-0.142
0.036
0.12
0.169
0.196
0.217
0.23
0.242
0.239
0.252
0.256
0.267
0.265
0.265
0.269
0.281
0.278
0.282
0.289
0.292
0.299
0.295
0.302
0.308
0.317
0.31
0.321
0.325
0.336
0.34
0.341
0.358
0.363
0.366
0.365
0.368
0.371
0.374
0.366
0.359
0.346
0.341
0.321
0.307
0.295
0.275
0.255
0.232
0.214
0.188
0.162
0.128
0.096
0.056
0.022
-0.017
-0.051
-0.085
-0.112
-0.145
-0.167
-0.189
-0.209
-0.226
-0.238
-0.246
-0.249
-0.255
-0.262
-0.261
-0.266
-0.259
-0.27
-0.268
-0.264
-0.258
-0.256
-0.248
-0.242
-0.238
-0.233
-0.229
-0.214
-0.208
-0.199
-0.194
-0.186
-0.18
-0.17
-0.171
-0.162
-0.157
-0.147
-0.146
-0.137
-0.135
-0.131
-0.124
-0.119
-0.118
-0.119
-0.113
-0.116
-0.112
-0.111
-0.106
-0.111
-0.101
-0.1
-0.098
-0.099
-0.099
-0.097
-0.094
-0.095
-0.096
-0.091
-0.094
-0.086
-0.088
-0.079
-0.079
-0.072
-0.075
-0.068
-0.066
-0.06
-0.058
-0.051
-0.05
-0.048
-0.041
-0.042
-0.038
-0.033
-0.022
-0.019
0.01
0.035
0.054
0.062
0.062
0.067
0.089
0.1
0.108
0.104
0.088
0.066
0.056
0.048
0.021
0.005
-0.011
-0.019
-0.024
-0.028
-0.04
-0.042
-0.048
-0.048
-0.044
-0.047
-0.048
-0.051
-0.043
-0.043
-0.037
-0.034
-0.026
-0.03
-0.023
-0.028
-0.036
-0.016
0.046
0.141
0.244
0.421
0.537
0.676
0.761
0.562
0.072
-0.414
-0.929
-1.093
-1.059
-0.868
-0.703
-0.472
-0.216
-0.015
0.084
0.134
0.162
0.179
0.198
0.208
0.21
0.208
0.225
0.231
0.237
0.233
0.238
0.244
0.249
0.249
0.258
0.267
0.271
0.269
0.278
0.286
0.288
0.296
0.297
0.311
0.318
0.325
0.328
0.338
0.35
0.361
0.361
0.367
0.373
0.374
0.372
0.362
0.36
0.341
0.335
0.315
0.299
0.278
0.261
0.235
0.214
0.195
0.163
0.13
0.094
0.06
0.018
-0.024
-0.058
-0.08
-0.115
-0.139
-0.173
-0.188
-0.212
-0.224
-0.24
-0.252
-0.252
-0.259
-0.261
-0.266
-0.261
-0.269
-0.265
-0.262
-0.253
-0.25
-0.245
-0.245
-0.237
-0.234
-0.225
-0.218
-0.21
-0.199
-0.192
-0.188
-0.182
-0.174
-0.169
-0.157
-0.159
-0.152
-0.15
-0.14
-0.142
-0.134
-0.134
-0.126
-0.129
-0.123
-0.118
-0.119
-0.117
-0.115
-0.109
-0.115
-0.112
-0.116
-0.108
-0.112
-0.103
-0.107
-0.101
-0.103
-0.102
-0.095
-0.096
-0.092
-0.08
-0.071
-0.054
-0.024
-0.017
-0.001
-0.008
-0.007
0.012
0.04
0.053
0.057
0.042
0.015
0.003
-0.001
-0.016
-0.041
-0.063
-0.069
-0.072
-0.073
-0.079
-0.091
-0.093
-0.094
-0.09
-0.094
-0.087
-0.083
-0.08
-0.071
-0.072
-0.067
-0.064
-0.055
-0.05
-0.045
-0.041
-0.041
-0.024
0.06
0.168
0.299
0.476
0.58
0.749
0.749
0.416
-0.02
-0.513
-0.949
-1.032
-0.968
-0.836
-0.691
-0.482
-0.238
-0.041
0.066
0.129
0.161
0.177
0.196
0.213
0.225
0.224
0.227
0.228
0.242
0.241
0.252
0.258
0.264
0.267
0.271
0.274
0.285
0.288
0.285
0.29
0.298
0.303
0.299
0.305
0.308
0.321
0.323
0.329
0.33
0.343
0.343
0.348
0.348
0.348
0.342
0.331
0.316
0.305
0.292
0.27
0.256
0.235
0.213
0.185
0.164
0.135
0.108
0.071
0.041
0.006
-0.024
-0.062
-0.091
-0.12
-0.149
-0.164
-0.192
-0.209
-0.222
-0.228
-0.24
-0.241
-0.248
-0.247
-0.251
-0.251
-0.25
-0.249
-0.246
-0.244
-0.237
-0.236
-0.225
-0.227
-0.213
-0.209
-0.208
-0.196
-0.191
-0.185
-0.173
-0.162
-0.157
-0.147
-0.142
-0.134
-0.131
-0.122
-0.121
-0.115
-0.116
-0.111
-0.109
-0.102
-0.101
-0.102
-0.103
-0.099
-0.098
-0.097
-0.092
-0.091
-0.085
-0.088
-0.085
-0.086
-0.081
-0.08
-0.071
-0.07
-0.055
-0.035
-0.019
-0.004
0.008
0.013
0.013
0.033
0.058
0.072
0.062
0.054
0.021
0.003
-0.005
-0.024
-0.051
-0.072
-0.083
-0.086
-0.091
-0.096
-0.101
-0.102
-0.097
-0.097
-0.096
-0.104
-0.094
-0.09
-0.082
-0.08
-0.071
-0.063
-0.056
-0.05
-0.047
-0.043
-0.049
-0.019
0.054
0.161
0.279
0.462
0.558
0.716
0.746
0.455
-0.028
-0.521
-0.986
-1.089
-1.028
-0.875
-0.717
-0.501
-0.235
-0.03
0.081
0.139
0.174
0.187
0.209
0.222
0.226
0.225
0.233
0.243
0.247
0.248
0.255
0.263
0.264
0.269
0.27
0.291
0.294
0.302
0.296
0.309
0.315
0.323
0.324
0.333
0.344
0.348
0.348
0.358
0.369
0.37
0.377
0.378
0.388
0.381
0.383
0.367
0.359
0.349
0.328
0.309
0.294
0.276
0.254
0.229
0.2
0.172
0.137
0.103
0.066
0.039
0.003
-0.03
-0.063
-0.086
-0.108
-0.134
-0.156
-0.169
-0.184
-0.198
-0.207
-0.215
-0.212
-0.217
-0.217
-0.218
-0.217
-0.223
-0.217
-0.217
-0.212
-0.209
-0.207
-0.207
-0.197
-0.188
-0.185
-0.179
-0.173
-0.162
-0.16
-0.154
-0.148
-0.141
-0.139
-0.129
-0.123
-0.112
-0.111
-0.102
-0.102
-0.103
-0.092
-0.091
-0.089
-0.09
-0.086
-0.085
-0.085
-0.09
-0.091
-0.092
-0.088
-0.095
-0.092
-0.092
-0.092
-0.087
-0.083
-0.078
-0.077
-0.07
-0.069
-0.064
-0.061
-0.045
-0.045
-0.022
0
0.02
0.029
0.031
0.039
0.04
0.054
0.067
0.074
0.057
0.034
0.013
0.01
-0.007
-0.019
-0.047
-0.055
-0.064
-0.067
-0.072
-0.079
-0.087
-0.091
-0.091
-0.087
-0.081
-0.087
-0.08
-0.081
-0.076
-0.074
-0.067
-0.061
-0.055
-0.06
-0.054
-0.053
-0.046
0.008
0.117
0.205
0.385
0.525
0.635
0.756
0.649
0.203
-0.294
-0.826
-1.128
-1.153
-0.996
-0.806
-0.595
-0.315
-0.077
0.054
0.131
0.166
0.188
0.198
0.215
0.222
0.227
0.225
0.241
0.239
0.24
0.239
0.249
0.255
0.252
0.256
0.263
0.277
0.272
0.279
0.28
0.293
0.295
0.297
0.301
0.313
0.319
0.324
0.328
0.341
0.349
0.353
0.358
0.358
0.365
0.356
0.351
0.34
0.334
0.315
0.293
0.271
0.256
0.234
0.212
0.186
0.155
0.129
0.089
0.056
0.023
-0.006
-0.045
-0.074
-0.108
-0.135
-0.158
-0.181
-0.205
-0.217
-0.228
-0.241
-0.255
-0.256
-0.255
-0.265
-0.269
-0.269
-0.263
-0.266
-0.259
-0.262
-0.252
-0.256
-0.252
-0.245
-0.239
-0.227
-0.226
-0.216
-0.21
-0.199
-0.193
-0.186
-0.179
-0.163
-0.163
-0.156
-0.15
-0.14
-0.133
-0.132
-0.126
-0.125
-0.122
-0.118
-0.113
-0.116
-0.108
-0.112
-0.106
-0.111
-0.106
-0.11
-0.105
-0.105
-0.102
-0.101
-0.102
-0.097
-0.093
-0.088
-0.084
-0.088
-0.088
-0.078
-0.082
-0.072
-0.079
-0.077
-0.085
-0.077
-0.077
-0.074
-0.07
-0.071
-0.069
-0.067
-0.066
-0.059
-0.055
-0.058
-0.049
-0.052
-0.047
-0.046
-0.034
-0.029
-0.012
0.01
0.031
0.047
0.056
0.058
0.068
0.082
0.091
0.095
0.085
0.062
0.039
0.041
0.017
0.001
-0.017
-0.025
-0.031
-0.035
-0.041
-0.048
-0.052
-0.054
-0.054
-0.056
-0.051
-0.056
-0.052
-0.053
-0.048
-0.046
-0.033
-0.031
-0.029
-0.032
-0.035
-0.04
-0.024
0.038
0.135
0.234
0.399
0.529
0.647
0.734
0.571
0.088
-0.405
-0.901
-1.13
-1.11
-0.916
-0.737
-0.492
-0.224
-0.016
0.08
0.141
0.164
0.185
0.203
0.219
0.217
0.226
0.234
0.246
0.251
0.251
0.258
0.268
0.272
0.269
0.282
0.291
0.297
0.295
0.305
0.311
0.315
0.322
0.326
0.334
0.342
0.348
0.346
0.356
0.357
0.367
0.36
0.37
0.372
0.371
0.356
0.355
0.346
0.337
0.319
0.302
0.282
0.268
0.248
0.226
0.202
0.178
0.153
0.117
0.089
0.05
0.015
-0.024
-0.057
-0.092
-0.119
-0.149
-0.18
-0.198
-0.215
-0.226
-0.242
-0.251
-0.26
-0.261
-0.279
-0.274
-0.274
-0.272
-0.281
-0.273
-0.269
-0.26
-0.252
-0.249
-0.246
-0.237
-0.226
-0.225
-0.208
-0.206
-0.191
-0.194
-0.178
-0.179
-0.168
-0.167
-0.16
-0.153
-0.147
-0.144
-0.14
-0.133
-0.13
-0.126
-0.133
-0.123
-0.125
-0.112
-0.119
-0.111
-0.112
-0.11
-0.11
-0.106
-0.101
-0.103
-0.102
-0.102
-0.097
-0.097
-0.098
-0.095
-0.092
-0.093
-0.09
-0.092
-0.09
-0.093
-0.091
-0.086
-0.085
-0.083
-0.081
-0.073
-0.071
-0.064
-0.067
-0.056
-0.054
-0.05
-0.052
-0.044
-0.045
-0.036
-0.037
-0.031
-0.028
-0.022
-0.017
-0.016
-0.008
-0.013
-0.007
-0.01
0.002
0
0.01
0.006
0.006
0.01
0.009
0.012
0.019
0.027
0.04
0.067
0.08
0.1
0.098
0.1
0.11
0.138
0.139
0.144
0.131
0.112
0.091
0.091
0.073
0.054
0.036
0.034
0.032
0.029
0.024
0.016
0.018
0.014
0.015
0.012
0.016
0.011
0.015
0.015
0.015
0.013
0.02
0.025
0.031
0.031
0.026
0.025
0.033
0.09
0.179
0.261
0.422
0.547
0.676
0.775
0.673
0.218
-0.265
-0.767
-1.024
-1.047
-0.857
-0.689
-0.46
-0.206
0.004
0.103
0.162
0.188
0.203
0.22
0.235
0.237
0.243
0.252
0.258
0.26
0.256
0.266
0.273
0.281
0.276
0.281
0.287
0.292
0.287
0.295
0.304
0.309
0.316
0.317
0.324
0.332
0.342
0.342
0.348
0.357
0.369
0.365
0.372
0.371
0.377
0.365
0.361
0.353
0.349
0.337
0.313
0.3
0.281
0.264
0.238
0.215
0.186
0.164
0.124
0.095
0.058
0.025
-0.017
-0.049
-0.078
-0.109
-0.139
-0.163
-0.18
-0.2
-0.211
-0.229
-0.226
-0.229
-0.243
-0.26
-0.268
-0.27
-0.268
-0.266
-0.266
-0.269
-0.265
-0.254
-0.25
-0.241
-0.235
-0.227
-0.227
-0.215
-0.216
-0.204
-0.201
-0.194
-0.186
-0.179
-0.171
-0.167
-0.16
-0.159
-0.152
-0.147
-0.141
-0.138
-0.131
-0.131
-0.124
-0.125
-0.117
-0.114
-0.108
-0.103
-0.104
-0.104
-0.101
-0.102
-0.102
-0.099
-0.104
-0.104
-0.107
-0.1
-0.105
-0.099
-0.107
-0.1
-0.105
-0.103
-0.104
-0.103
-0.098
-0.095
-0.093
-0.094
-0.086
-0.087
-0.08
-0.078
-0.069
-0.069
-0.07
-0.073
-0.064
-0.063
-0.06
-0.055
-0.054
-0.05
-0.046
-0.043
-0.042
-0.035
-0.037
-0.031
-0.034
-0.024
-0.025
-0.02
-0.022
-0.019
-0.016
-0.011
-0.006
-0.004
-0.004
0.002
0.004
0
0.004
0.001
0.01
0.007
0.018
0.017
0.024
0.027
0.025
0.027
0.027
0.033
0.032
0.046
0.057
0.079
0.09
0.108
0.109
0.114
0.122
0.142
0.151
0.146
0.136
0.113
0.096
0.091
0.075
0.054
0.038
0.026
0.027
0.016
0.016
0
0.001
-0.005
0.001
-0.003
-0.002
-0.002
-0.002
0.003
0.002
0.007
0.01
0.021
0.014
0.021
0.017
0.009
0.028
0.11
0.196
0.317
0.48
0.586
0.729
0.769
0.537
0.029
-0.461
-0.917
-1.046
-0.984
-0.792
-0.626
-0.394
-0.16
0.017
0.104
0.148
0.173
0.19
0.206
0.21
0.219
0.222
0.237
0.237
0.245
0.243
0.256
0.257
0.259
0.256
0.264
0.273
0.275
0.272
0.274
0.281
0.283
0.285
0.284
0.296
0.303
0.312
0.307
0.323
0.327
0.33
0.326
0.33
0.337
0.34
0.335
0.324
0.325
0.311
0.296
0.276
0.267
0.247
0.228
0.202
0.183
0.153
0.125
0.094
0.06
0.02
-0.015
-0.05
-0.087
-0.115
-0.149
-0.177
-0.211
-0.228
-0.25
-0.27
-0.286
-0.294
-0.303
-0.314
-0.319
-0.318
-0.316
-0.32
-0.316
-0.317
-0.307
-0.313
-0.301
-0.298
-0.292
-0.291
-0.281
-0.281
-0.272
-0.265
-0.258
-0.254
-0.247
-0.234
-0.234
-0.223
-0.217
-0.2
-0.197
-0.184
-0.187
-0.179
-0.178
-0.166
-0.166
-0.16
-0.148
-0.152
-0.148
-0.14
-0.136
-0.137
-0.133
-0.135
-0.132
-0.138
-0.132
-0.135
-0.129
-0.13
-0.123
-0.127
-0.124
-0.115
-0.12
-0.119
-0.117
-0.112
-0.109
-0.105
-0.109
-0.099
-0.098
-0.096
-0.097
-0.093
-0.092
-0.086
-0.086
-0.082
-0.08
-0.082
-0.063
-0.065
-0.057
-0.061
-0.046
-0.048
-0.037
-0.041
-0.032
-0.032
-0.028
-0.024
-0.024
-0.018
-0.021
-0.019
-0.017
-0.013
-0.011
-0.006
-0.009
-0.002
-0.003
0.001
0.002
0.008
0.011
0.012
0.02
0.025
0.042
0.064
0.079
0.09
0.098
0.1
0.127
0.143
0.153
0.141
0.139
0.102
0.093
0.085
0.068
0.048
0.039
0.035
0.03
0.025
0.014
0.011
-0.001
0.004
0.001
0.008
0.001
0.002
-0.005
0.002
0.003
0.006
0.005
0.003
0.005
-0.004
-0.003
0.006
0.076
0.182
0.279
0.456
0.577
0.715
0.792
0.609
0.169
-0.283
-0.808
-1.002
-0.982
-0.871
-0.719
-0.552
-0.31
-0.095
0.057
0.14
0.181
0.201
0.216
0.232
0.237
0.245
0.253
0.263
0.262
0.262
0.268
0.275
0.286
0.284
0.287
0.29
0.301
0.298
0.298
0.304
0.314
0.314
0.315
0.321
0.326
0.338
0.34
0.349
0.354
0.363
0.364
0.373
0.373
0.375
0.369
0.363
0.35
0.344
0.33
0.311
0.297
0.277
0.261
0.237
0.215
0.188
0.161
0.13
0.098
0.063
0.032
-0.007
-0.04
-0.073
-0.106
-0.135
-0.168
-0.189
-0.212
-0.223
-0.245
-0.249
-0.263
-0.266
-0.273
-0.271
-0.279
-0.28
-0.28
-0.282
-0.275
-0.271
-0.267
-0.268
-0.262
-0.256
-0.249
-0.247
-0.243
-0.239
-0.225
-0.22
-0.212
-0.204
-0.196
-0.187
-0.183
-0.18
-0.172
-0.165
-0.159
-0.149
-0.148
-0.142
-0.139
-0.136
-0.139
-0.133
-0.132
-0.126
-0.126
-0.123
-0.127
-0.125
-0.12
-0.118
-0.115
-0.118
-0.113
-0.117
-0.109
-0.108
-0.101
-0.106
-0.099
-0.099
-0.095
-0.094
-0.089
-0.086
-0.086
-0.082
-0.08
-0.075
-0.083
-0.071
-0.073
-0.07
-0.075
-0.069
-0.069
-0.067
-0.066
-0.065
-0.062
-0.059
-0.052
-0.05
-0.044
-0.045
-0.035
-0.037
-0.032
-0.035
-0.03
-0.028
-0.018
-0.016
-0.012
0.005
0.024
0.036
0.05
0.056
0.057
0.074
0.091
0.104
0.098
0.093
0.063
0.049
0.047
0.027
0.009
-0.008
-0.011
-0.015
-0.015
-0.023
-0.027
-0.035
-0.036
-0.035
-0.03
-0.034
-0.026
-0.026
-0.022
-0.019
-0.01
-0.011
-0.009
-0.005
-0.003
-0.006
0.005
0.062
0.175
0.261
0.433
0.566
0.689
0.785
0.637
0.177
-0.304
-0.835
-1.084
-1.087
-0.939
-0.76
-0.56
-0.296
-0.071
0.065
0.138
0.17
0.196
0.203
0.221
0.222
0.228
0.234
0.242
0.25
0.254
0.259
0.261
0.27
0.266
0.271
0.274
0.288
0.282
0.285
0.291
0.303
0.304
0.311
0.319
0.329
0.337
0.342
0.349
0.356
0.367
0.365
0.375
0.375
0.381
0.372
0.369
0.36
0.355
0.341
0.325
0.307
0.29
0.271
0.244
0.225
0.191
0.171
0.132
0.1
0.067
0.033
-0.011
-0.047
-0.084
-0.109
-0.139
-0.169
-0.193
-0.214
-0.23
-0.246
-0.253
-0.262
-0.262
-0.27
-0.27
-0.276
-0.269
-0.268
-0.267
-0.268
-0.261
-0.255
-0.254
-0.245
-0.243
-0.23
-0.23
-0.221
-0.217
-0.206
-0.204
-0.196
-0.193
-0.18
-0.176
-0.17
-0.165
-0.159
-0.155
-0.149
-0.149
-0.145
-0.135
-0.135
-0.13
-0.133
-0.124
-0.125
-0.123
-0.126
-0.118
-0.117
-0.115
-0.11
-0.111
-0.113
-0.114
-0.109
-0.107
-0.1
-0.1
-0.098
-0.101
-0.094
-0.095
-0.089
-0.083
-0.08
-0.079
-0.077
-0.075
-0.072
-0.07
-0.067
-0.065
-0.063
-0.052
-0.053
-0.049
-0.041
-0.035
-0.034
-0.027
-0.022
-0.023
-0.019
-0.017
-0.01
-0.013
-0.006
-0.009
-0.005
-0.002
0
-0.002
0.001
0.005
0.006
0.007
0.009
0.01
0.012
0.016
0.02
0.026
0.026
0.033
0.029
0.037
0.04
0.056
0.072
0.097
0.105
0.112
0.11
0.12
0.143
0.154
0.151
0.137
0.127
0.095
0.089
0.072
0.052
0.032
0.03
0.02
0.019
0.012
0.003
0
-0.004
-0.003
-0.009
-0.009
-0.009
-0.006
-0.009
-0.002
0.002
0.008
0.005
0.014
0.014
0.008
0.015
0.066
0.171
0.247
0.429
0.558
0.684
0.762
0.689
0.263
-0.228
-0.738
-1.049
-1.104
-0.943
-0.757
-0.535
-0.276
-0.056
0.069
0.134
0.168
0.185
0.205
0.209
0.22
0.22
0.234
0.238
0.246
0.247
0.254
0.258
0.267
0.267
0.261
0.278
0.285
0.288
0.289
0.299
0.302
0.31
0.315
0.32
0.326
0.331
0.335
0.34
0.349
0.356
0.356
0.355
0.364
0.364
0.366
0.359
0.357
0.351
0.342
0.318
0.3
0.287
0.269
0.247
0.219
0.194
0.17
0.134
0.095
0.064
0.028
-0.007
-0.052
-0.083
-0.124
-0.149
-0.182
-0.207
-0.227
-0.25
-0.265
-0.28
-0.289
-0.295
-0.295
-0.306
-0.301
-0.304
-0.302
-0.309
-0.304
-0.308
-0.301
-0.3
-0.294
-0.29
-0.281
-0.282
-0.273
-0.262
-0.255
-0.249
-0.245
-0.238
-0.227
-0.219
-0.22
-0.21
-0.203
-0.197
-0.193
-0.184
-0.179
-0.174
-0.171
-0.167
-0.16
-0.155
-0.152
-0.151
-0.146
-0.148
-0.141
-0.141
-0.132
-0.138
-0.134
-0.134
-0.129
-0.124
-0.127
-0.125
-0.125
-0.121
-0.117
-0.115
-0.113
-0.105
-0.11
-0.1
-0.1
-0.092
-0.088
-0.085
-0.08
-0.077
-0.076
-0.075
-0.068
-0.071
-0.062
-0.061
-0.055
-0.059
-0.049
-0.049
-0.047
-0.044
-0.037
-0.038
-0.036
-0.034
-0.033
-0.026
-0.025
-0.019
-0.023
-0.018
-0.012
-0.012
-0.011
-0.003
-0.003
0.004
0.005
0.006
0.013
0.022
0.029
0.033
0.059
0.079
0.092
0.102
0.107
0.111
0.136
0.15
0.153
0.141
0.127
0.1
0.089
0.075
0.057
0.037
0.024
0.023
0.017
0.014
0.004
0.002
-0.007
-0.004
-0.008
-0.004
-0.008
-0.004
-0.004
-0.006
-0.001
0.003
0.006
0.006
0.009
0.002
0.007
0.039
0.15
0.218
0.396
0.539
0.65
0.771
0.738
0.366
-0.134
-0.648
-1.001
-1.066
-0.93
-0.736
-0.545
-0.281
-0.056
0.081
0.14
0.179
0.193
0.21
0.224
0.227
0.231
0.237
0.245
0.251
0.25
0.25
0.262
0.259
0.259
0.26
0.276
0.28
0.286
0.286
0.292
0.297
0.297
0.301
0.31
0.319
0.321
0.331
0.333
0.344
0.348
0.353
0.355
0.365
0.364
0.366
0.354
0.348
0.343
0.331
0.321
0.3
0.286
0.264
0.244
0.215
0.199
0.169
0.139
0.105
0.076
0.037
-0.002
-0.042
-0.075
-0.107
-0.138
-0.17
-0.193
-0.208
-0.229
-0.24
