0.357
0.328
0.281
0.294
0.283
0.281
0.273
0.266
0.219
0.188
0.145
0.112
0.093
0.066
0.108
0.128
0.076
-0.035
-0.173
-0.225
-0.184
-0.16
-0.177
-0.187
-0.17
-0.164
-0.153
-0.129
-0.104
0.003
0.037
-0.08
-0.224
-0.303
-0.311
-0.251
-0.21
-0.203
-0.169
-0.213
-0.18
-0.145
-0.103
-0.067
-0.071
-0.097
-0.134
-0.107
-0.093
-0.087
-0.031
0.037
0.118
0.149
0.066
-0.078
-0.176
-0.173
-0.086
-0.009
0.022
0.045
0.043
0.004
0.012
-0.012
-0.052
-0.035
-0.032
-0.047
-0.119
-0.119
-0.103
-0.099
-0.085
-0.088
-0.111
-0.145
-0.151
-0.143
-0.105
-0.166
-0.171
-0.117
-0.084
-0.095
-0.119
-0.152
-0.141
-0.077
-0.103
-0.098
-0.094
-0.066
-0.058
-0.086
-0.042
0.056
0.185
0.358
0.51
0.689
0.832
0.821
0.446
-0.056
-0.557
-1.03
-1.105
-1.043
-0.898
-0.731
-0.544
-0.304
-0.084
0.021
0.059
0.097
0.112
0.028
0.098
0.092
0.154
0.147
0.076
-0.024
-0.058
0.295
0.355
0.185
0.291
0.278
0.29
0.295
0.191
0.134
0.213
0.369
0.338
0.294
0.28
0.334
0.331
0.292
0.188
0.37
0.271
0.319
0.336
0.333
0.185
0.227
0.295
0.257
0.256
0.373
0.425
0.385
0.361
0.336
0.295
0.257
0.282
0.237
0.201
0.201
0.138
0.103
0.045
0.128
0.001
-0.056
0
-0.095
-0.2
-0.211
-0.089
-0.217
-0.271
-0.328
-0.119
-0.18
-0.162
-0.263
-0.161
-0.162
-0.171
-0.19
-0.188
-0.175
-0.161
-0.163
-0.136
-0.185
-0.149
-0.141
-0.154
-0.156
-0.165
-0.155
-0.149
-0.141
-0.122
-0.132
-0.097
-0.087
-0.085
-0.08
-0.038
-0.019
-0.017
-0.003
0.031
0.029
0.027
0.038
0.052
0.101
0.107
0.092
-0.03
0.036
0.031
0.013
-0.02
-0.147
-0.08
-0.119
-0.173
0.067
0.005
-0.037
-0.1
-0.155
-0.08
-0.097
-0.039
-0.066
-0.058
-0.093
-0.123
-0.14
-0.162
-0.009
-0.049
-0.063
-0.032
-0.089
-0.026
-0.028
-0.063
-0.04
0.014
0.196
0.243
0.398
0.567
0.713
0.863
0.655
0.15
-0.264
-0.818
-1.087
-1.126
-0.981
-0.824
-0.731
-0.474
-0.285
-0.056
0.079
0.084
0.118
0.117
0.079
0.156
0.202
0.179
0.204
0.188
0.179
0.176
0.211
0.229
0.21
0.117
0.196
0.22
0.204
0.241
0.245
0.097
0.271
0.241
0.25
0.212
0.304
0.264
0.272
0.295
0.298
0.293
0.277
0.303
0.326
0.282
0.265
0.264
0.27
0.329
0.27
0.237
0.268
0.264
0.211
0.161
0.137
0.14
0.127
0.134
0.088
0.082
0.002
0.022
-0.015
-0.001
-0.06
-0.126
-0.122
-0.154
-0.107
-0.155
-0.184
-0.227
-0.216
-0.218
-0.272
-0.23
-0.215
-0.219
-0.226
-0.243
-0.22
-0.2
-0.204
-0.212
-0.194
-0.185
-0.176
-0.212
-0.199
-0.185
-0.168
-0.184
-0.199
-0.145
-0.11
-0.149
-0.138
-0.134
-0.099
-0.103
-0.104
-0.109
-0.079
-0.041
-0.032
-0.044
-0.042
-0.019
-0.027
-0.009
0.009
0.002
-0.012
-0.026
-0.071
-0.067
-0.08
-0.095
-0.104
-0.101
-0.103
-0.123
-0.134
-0.163
-0.154
-0.189
-0.153
-0.164
-0.151
-0.162
-0.156
-0.108
-0.148
-0.166
-0.145
-0.142
-0.144
-0.114
-0.079
-0.062
-0.099
-0.112
-0.127
-0.053
0.043
0.158
0.35
0.567
0.663
0.76
0.742
0.444
-0.035
-0.59
-1.092
-1.23
-1.183
-1.018
-0.848
-0.607
-0.317
-0.123
-0.028
0.03
0.074
0.095
0.124
0.16
0.193
0.208
0.203
0.199
0.175
0.163
0.15
0.16
0.18
0.187
0.209
0.2
0.207
0.231
0.232
0.23
0.238
0.235
0.244
0.246
0.255
0.278
0.279
0.283
0.269
0.282
0.285
0.294
0.307
0.312
0.306
0.307
0.286
0.289
0.277
0.261
0.247
0.248
0.237
0.213
0.196
0.176
0.156
0.132
0.112
0.079
0.047
0.022
-0.016
-0.053
-0.07
-0.105
-0.13
-0.144
-0.158
-0.19
-0.211
-0.218
-0.233
-0.247
-0.243
-0.25
-0.242
-0.228
-0.247
-0.267
-0.252
-0.218
-0.239
-0.262
-0.217
-0.188
-0.189
-0.208
-0.211
-0.185
-0.171
-0.176
-0.189
-0.189
-0.137
-0.142
-0.154
-0.136
-0.105
-0.12
-0.137
-0.119
-0.099
-0.094
-0.1
-0.099
-0.065
-0.045
-0.022
-0.034
-0.009
-0.019
-0.013
-0.001
0.04
0.045
0.009
-0.013
-0.032
-0.018
-0.04
-0.06
-0.085
-0.093
-0.09
-0.098
-0.117
-0.118
-0.112
-0.13
-0.128
-0.114
-0.102
-0.107
-0.113
-0.104
-0.099
-0.098
-0.089
-0.091
-0.084
-0.073
-0.068
-0.079
-0.077
-0.079
-0.063
0.026
0.153
0.278
0.457
0.615
0.705
0.776
0.636
0.163
-0.333
-0.877
-1.183
-1.243
-1.112
-0.902
-0.668
-0.38
-0.142
0.008
0.074
0.102
0.171
0.168
0.162
0.17
0.175
0.217
0.221
0.225
0.24
0.222
0.249
0.256
0.25
0.245
0.217
0.222
0.246
0.276
0.293
0.286
0.274
0.284
0.291
0.311
0.332
0.339
0.335
0.35
0.347
0.364
0.358
0.408
0.465
0.468
0.4
0.33
0.288
0.291
0.286
0.289
0.29
0.262
0.229
0.187
0.167
0.142
0.132
0.194
0.288
0.219
0.119
0.039
-0.089
-0.15
-0.158
-0.168
-0.177
-0.193
-0.216
-0.225
-0.219
-0.238
-0.258
-0.268
-0.257
-0.267
-0.286
-0.275
-0.251
-0.256
-0.266
-0.245
-0.232
-0.233
-0.228
-0.223
-0.205
-0.189
-0.179
-0.188
-0.185
-0.177
-0.163
-0.175
-0.162
-0.142
-0.132
-0.142
-0.148
-0.131
-0.103
-0.102
-0.127
-0.123
-0.086
-0.082
-0.101
-0.102
-0.043
-0.018
-0.023
-0.034
-0.017
0.003
0.01
0.025
0.033
0.053
0.087
0.037
-0.009
-0.025
0.02
-0.052
-0.114
-0.142
-0.117
-0.089
-0.115
-0.161
-0.209
-0.232
-0.213
-0.181
-0.153
-0.152
-0.155
-0.135
-0.109
-0.106
-0.115
-0.09
0.064
0.324
0.313
0.122
-0.189
-0.357
-0.292
-0.062
0.111
0.339
0.493
0.603
0.734
0.695
0.319
-0.215
-0.706
-1.118
-1.256
-1.18
-0.937
-0.665
-0.378
-0.161
-0.009
0.1
0.156
0.163
0.179
0.218
0.24
0.223
0.226
0.244
0.268
0.246
0.244
0.266
0.284
0.276
0.262
0.271
0.298
0.303
0.289
0.286
0.316
0.322
0.308
0.3
0.327
0.343
0.335
0.332
0.345
0.359
0.353
0.348
0.356
0.375
0.373
0.355
0.345
0.356
0.346
0.32
0.306
0.313
0.304
0.266
0.227
0.226
0.227
0.195
0.171
0.15
0.125
0.086
0.05
0.015
-0.003
-0.033
-0.065
-0.087
-0.11
-0.138
-0.168
-0.183
-0.192
-0.195
-0.208
-0.218
-0.217
-0.187
-0.122
-0.134
-0.168
-0.22
-0.265
-0.26
-0.238
-0.212
-0.2
-0.203
-0.193
-0.177
-0.161
-0.157
-0.163
-0.158
-0.138
-0.138
-0.147
-0.138
-0.125
-0.127
-0.135
-0.126
-0.117
-0.114
-0.116
-0.116
-0.11
-0.108
-0.106
-0.101
-0.096
-0.086
-0.071
-0.054
-0.033
-0.015
-0.025
-0.025
-0.011
0.017
0.022
0.01
0.002
-0.018
-0.035
-0.036
-0.05
-0.064
-0.084
-0.093
-0.095
-0.081
-0.076
-0.088
-0.079
-0.08
-0.067
-0.034
-0.06
-0.057
0.117
0.509
0.414
0.115
-0.32
-0.514
-0.415
-0.269
-0.181
-0.169
-0.19
-0.148
-0.054
0.077
0.157
0.332
0.558
0.709
0.92
0.981
0.586
-0.107
-0.833
-1.315
-1.371
-1.218
-0.997
-0.804
-0.504
-0.189
0.005
0.076
0.076
0.138
0.187
0.199
0.168
0.192
0.238
0.251
0.223
0.232
0.264
0.267
0.262
0.256
0.288
0.3
0.267
0.241
0.27
0.325
0.33
0.314
0.313
0.352
0.329
0.299
0.32
0.37
0.422
0.416
0.372
0.348
0.34
0.335
0.317
0.344
0.383
0.396
0.336
0.323
0.333
0.345
0.292
0.263
0.268
0.224
0.188
0.164
0.149
0.15
0.121
0.082
0.052
0.044
0.033
-0.032
-0.07
-0.079
-0.105
-0.14
-0.163
-0.164
-0.179
-0.207
-0.239
-0.221
-0.217
-0.223
-0.24
-0.234
-0.216
-0.191
-0.213
-0.252
-0.267
-0.238
-0.22
-0.217
-0.195
-0.174
-0.166
-0.177
-0.166
-0.168
-0.166
-0.185
-0.174
-0.15
-0.154
-0.162
-0.153
-0.132
-0.135
-0.143
-0.133
-0.13
-0.128
-0.132
-0.134
-0.12
-0.12
-0.118
-0.116
-0.112
-0.086
-0.075
-0.055
-0.041
-0.039
-0.037
-0.031
-0.008
0.003
0.01
0.001
-0.029
-0.042
-0.054
-0.076
-0.09
-0.116
-0.125
-0.129
-0.126
-0.129
-0.138
-0.145
-0.132
-0.138
-0.123
-0.129
-0.13
-0.117
-0.114
-0.116
-0.118
-0.108
-0.094
-0.089
-0.089
-0.083
-0.065
-0.069
-0.074
-0.011
0.131
0.233
0.42
0.564
0.691
0.798
0.648
0.177
-0.311
-0.865
-1.147
-1.203
-1.059
-0.864
-0.655
-0.388
-0.152
0.01
0.09
0.121
0.154
0.176
0.196
0.207
0.209
0.226
0.243
0.247
0.242
0.259
0.27
0.274
0.263
0.279
0.293
0.3
0.302
0.301
0.308
0.324
0.328
0.311
0.325
0.336
0.341
0.338
0.347
0.36
0.364
0.356
0.361
0.365
0.366
0.356
0.347
0.346
0.356
0.34
0.324
0.32
0.308
0.286
0.258
0.246
0.238
0.218
0.178
0.161
0.144
0.133
0.093
0.057
0.034
0.01
-0.022
-0.062
-0.083
-0.098
-0.129
-0.155
-0.164
-0.178
-0.189
-0.204
-0.218
-0.211
-0.208
-0.222
-0.226
-0.218
-0.216
-0.209
-0.215
-0.2
-0.186
-0.184
-0.188
-0.176
-0.17
-0.166
-0.161
-0.155
-0.148
-0.152
-0.152
-0.143
-0.141
-0.129
-0.133
-0.136
-0.129
-0.131
-0.137
-0.138
-0.128
-0.119
-0.109
-0.092
-0.074
-0.054
-0.055
-0.054
-0.048
-0.021
0
0.004
-0.003
-0.003
-0.031
-0.049
-0.058
-0.066
-0.097
-0.124
-0.128
-0.126
-0.137
-0.144
-0.15
-0.146
-0.144
-0.138
-0.134
-0.154
-0.147
-0.143
-0.137
-0.141
-0.128
-0.113
-0.114
-0.107
-0.106
-0.095
-0.085
-0.098
-0.098
-0.028
0.112
0.21
0.398
0.544
0.636
0.751
0.587
0.147
-0.319
-0.89
-1.18
-1.213
-1.122
-0.945
-0.761
-0.511
-0.257
-0.061
0.056
0.099
0.138
0.164
0.183
0.186
0.199
0.204
0.213
0.229
0.235
0.241
0.246
0.253
0.248
0.257
0.26
0.267
0.262
0.271
0.276
0.284
0.286
0.291
0.297
0.3
0.305
0.303
0.319
0.319
0.325
0.314
0.323
0.318
0.32
0.321
0.322
0.31
0.301
0.302
0.291
0.278
0.26
0.25
0.236
0.222
0.203
0.183
0.154
0.137
0.113
0.091
0.07
0.046
0.013
-0.018
-0.04
-0.061
-0.086
-0.108
-0.126
-0.143
-0.15
-0.17
-0.179
-0.193
-0.191
-0.204
-0.204
-0.19
-0.178
-0.185
-0.186
-0.178
-0.173
-0.163
-0.163
-0.158
-0.15
-0.138
-0.139
-0.136
-0.134
-0.126
-0.129
-0.13
-0.125
-0.12
-0.12
-0.121
-0.12
-0.118
-0.107
-0.11
-0.11
-0.116
-0.114
-0.122
-0.121
-0.102
-0.098
-0.07
-0.053
-0.032
-0.017
-0.02
-0.014
0.006
0.036
0.047
0.038
0.029
-0.001
-0.015
-0.03
-0.045
-0.071
-0.097
-0.11
-0.114
-0.117
-0.124
-0.136
-0.148
-0.142
-0.142
-0.134
-0.133
-0.131
-0.127
-0.113
-0.118
-0.112
-0.107
-0.097
-0.095
-0.095
-0.083
-0.08
-0.088
-0.075
0.008
0.135
0.263
0.453
0.575
0.676
0.742
0.524
0.004
-0.51
-1.06
-1.279
-1.291
-1.112
-0.892
-0.614
-0.318
-0.082
0.049
0.118
0.15
0.176
0.196
0.213
0.219
0.219
0.238
0.248
0.251
0.247
0.256
0.263
0.263
0.259
0.263
0.276
0.288
0.277
0.282
0.292
0.306
0.302
0.303
0.316
0.328
0.323
0.33
0.334
0.338
0.341
0.333
0.336
0.342
0.337
0.329
0.321
0.316
0.308
0.292
0.275
0.261
0.241
0.221
0.206
0.194
0.169
0.156
0.135
0.114
0.084
0.058
0.03
0.002
-0.022
-0.046
-0.077
-0.108
-0.132
-0.151
-0.175
-0.189
-0.208
-0.222
-0.231
-0.239
-0.247
-0.249
-0.245
-0.244
-0.241
-0.229
-0.226
-0.222
-0.216
-0.205
-0.204
-0.198
-0.193
-0.19
-0.183
-0.175
-0.173
-0.172
-0.163
-0.162
-0.161
-0.156
-0.148
-0.139
-0.157
-0.16
-0.162
-0.163
-0.154
-0.156
-0.151
-0.149
-0.14
-0.136
-0.132
-0.111
-0.086
-0.058
-0.051
-0.042
-0.038
-0.028
-0.004
0.009
0.005
0.001
-0.023
-0.042
-0.048
-0.058
-0.089
-0.115
-0.117
-0.118
-0.13
-0.133
-0.133
-0.138
-0.138
-0.13
-0.123
-0.129
-0.128
-0.124
-0.112
-0.103
-0.102
-0.1
-0.087
-0.078
-0.082
-0.078
-0.072
-0.074
-0.077
-0.017
0.111
0.212
0.403
0.544
0.656
0.756
0.616
0.153
-0.361
-0.921
-1.194
-1.255
-1.088
-0.868
-0.607
-0.323
-0.087
0.047
0.122
0.145
0.169
0.193
0.215
0.212
0.211
0.23
0.248
0.255
0.238
0.245
0.267
0.274
0.264
0.269
0.288
0.299
0.291
0.29
0.31
0.319
0.321
0.318
0.325
0.342
0.339
0.332
0.34
0.355
0.362
0.349
0.349
0.357
0.36
0.349
0.338
0.332
0.33
0.318
0.301
0.289
0.276
0.259
0.237
0.218
0.209
0.189
0.159
0.143
0.125
0.092
0.066
0.031
0.004
-0.019
-0.05
-0.081
-0.098
-0.12
-0.15
-0.177
-0.188
-0.196
-0.204
-0.217
-0.219
-0.217
-0.221
-0.214
-0.208
-0.207
-0.203
-0.201
-0.194
-0.181
-0.175
-0.169
-0.168
-0.155
-0.154
-0.149
-0.141
-0.129
-0.129
-0.127
-0.124
-0.125
-0.122
-0.124
-0.123
-0.128
-0.123
-0.124
-0.123
-0.125
-0.121
-0.123
-0.118
-0.108
-0.096
-0.071
-0.053
-0.029
-0.027
-0.024
-0.023
-0.009
0.007
0.012
0.002
-0.016
-0.041
-0.049
-0.064
-0.089
-0.11
-0.125
-0.122
-0.133
-0.137
-0.143
-0.139
-0.14
-0.138
-0.137
-0.127
-0.123
-0.126
-0.121
-0.109
-0.11
-0.106
-0.093
-0.083
-0.081
-0.074
-0.072
-0.087
-0.08
-0.028
0.093
0.193
0.395
0.528
0.649
0.761
0.607
0.151
-0.356
-0.917
-1.162
-1.206
-1.04
-0.833
-0.573
-0.278
-0.052
0.068
0.13
0.164
0.186
0.202
0.222
0.227
0.228
0.241
0.254
0.256
0.254
0.265
0.275
0.277
0.279
0.28
0.291
0.3
0.3
0.296
0.305
0.324
0.319
0.316
0.328
0.338
0.337
0.336
0.341
0.35
0.352
0.349
0.341
0.348
0.355
0.349
0.338
0.337
0.33
0.311
0.293
0.28
0.271
0.251
0.238
0.22
0.205
0.181
0.159
0.134
0.112
0.093
0.06
0.028
0.013
-0.003
-0.035
-0.067
-0.089
-0.101
-0.138
-0.155
-0.158
-0.179
-0.188
-0.195
-0.204
-0.202
-0.195
-0.189
-0.201
-0.197
-0.193
-0.196
-0.194
-0.181
-0.181
-0.185
-0.183
-0.176
-0.17
-0.169
-0.171
-0.169
-0.159
-0.156
-0.161
-0.159
-0.157
-0.153
-0.154
-0.157
-0.152
-0.156
-0.155
-0.156
-0.158
-0.144
-0.14
-0.128
-0.109
-0.082
-0.052
-0.056
-0.045
-0.044
-0.025
-0.018
-0.013
-0.028
-0.025
-0.05
-0.059
-0.071
-0.096
-0.129
-0.132
-0.124
-0.124
-0.121
-0.15
-0.167
-0.181
-0.167
-0.163
-0.161
-0.158
-0.151
-0.152
-0.139
-0.138
-0.132
-0.122
-0.116
-0.114
-0.105
-0.104
-0.115
-0.11
-0.054
0.063
0.156
0.367
0.501
0.646
0.756
0.558
0.098
-0.403
-0.957
-1.169
-1.182
-1.034
-0.847
-0.61
-0.326
-0.103
0.016
0.077
0.105
0.12
0.138
0.156
0.164
0.165
0.178
0.19
0.194
0.191
0.195
0.206
0.21
0.215
0.215
0.227
0.232
0.237
0.234
0.243
0.251
0.271
0.259
0.272
0.289
0.297
0.297
0.287
0.299
0.293
0.295
0.3
0.31
0.333
0.332
0.32
0.311
0.299
0.266
0.242
0.226
0.21
0.204
0.199
0.192
0.195
0.198
0.218
0.187
0.151
0.083
0.025
-0.007
-0.001
0.007
-0.038
-0.101
-0.146
-0.158
-0.168
-0.169
-0.175
-0.177
-0.193
-0.19
-0.185
-0.199
-0.195
-0.192
-0.185
-0.187
-0.188
-0.186
-0.178
-0.175
-0.176
-0.176
-0.167
-0.167
-0.165
-0.165
-0.156
-0.153
-0.148
-0.136
-0.132
-0.133
-0.151
-0.157
-0.158
-0.145
-0.137
-0.13
-0.12
-0.102
-0.106
-0.114
-0.114
-0.108
-0.101
-0.1
-0.083
-0.07
-0.061
-0.025
0.003
0.014
-0.002
-0.022
-0.051
-0.072
-0.067
-0.079
-0.097
-0.08
-0.048
-0.071
-0.146
-0.167
-0.181
-0.163
-0.083
-0.072
-0.108
-0.152
-0.193
-0.169
-0.155
-0.115
-0.084
-0.061
0
0.091
0.16
0.258
0.074
-0.171
-0.214
0.103
0.317
0.467
0.521
0.521
0.638
0.497
0.057
-0.347
-0.886
-1.145
-1.089
-0.88
-0.707
-0.547
-0.345
-0.181
-0.125
0.039
0.361
0.401
0.26
0.065
-0.056
-0.061
-0.032
0.05
0.115
0.175
0.202
0.234
0.237
0.273
0.306
0.311
0.313
0.434
0.498
0.51
0.327
0.145
0.046
0.05
0.148
0.202
0.245
0.276
0.301
0.333
0.341
0.355
0.368
0.425
0.407
0.359
0.368
0.497
0.523
0.335
0.129
0.014
0.039
0.132
0.165
0.197
0.183
0.168
0.171
0.135
0.115
0.092
0.182
0.188
0.078
-0.056
-0.074
-0.097
-0.101
-0.058
0.1
0.08
-0.096
-0.296
-0.365
-0.235
-0.165
-0.131
-0.117
-0.163
-0.311
-0.313
-0.277
-0.233
-0.175
0.014
0.055
0.039
-0.026
-0.12
-0.268
-0.35
-0.257
-0.091
0.147
0.149
-0.142
-0.381
-0.378
-0.261
-0.137
-0.046
0.007
-0.037
-0.077
-0.058
0.019
0.012
0.01
0.042
0.119
0.037
-0.101
-0.162
-0.064
0.098
0.156
0.122
0.048
-0.114
-0.284
-0.348
-0.258
-0.168
-0.147
-0.11
-0.103
-0.148
-0.166
-0.131
-0.033
0.105
0.061
-0.165
-0.265
-0.196
-0.011
0.071
0.018
-0.107
-0.1
-0.038
-0.023
0.068
0.09
0.328
0.583
0.879
0.958
0.61
0.101
-0.435
-1.005
-1.184
-1.009
-0.842
-0.719
-0.598
-0.312
-0.083
-0.076
-0.114
-0.069
0.069
0.305
0.447
0.273
0.06
0.06
0.197
0.226
0.248
0.252
0.21
0.214
0.24
0.339
0.541
0.398
0.137
0.07
0.137
0.312
0.425
0.375
0.213
0.223
0.276
0.291
0.252
0.257
0.281
0.317
0.352
0.411
0.434
0.37
0.274
0.242
0.215
0.261
0.275
0.27
0.243
0.22
0.21
0.266
0.279
0.206
0.069
0.061
0.054
0.049
0.077
0.086
0.01
-0.047
-0.061
-0.019
-0.047
-0.095
-0.114
-0.116
-0.098
-0.151
-0.156
-0.159
-0.157
-0.14
-0.165
-0.162
-0.103
-0.129
-0.194
-0.191
-0.174
-0.104
-0.081
-0.022
-0.057
-0.177
-0.227
-0.116
0.015
0.037
-0.099
-0.167
-0.159
-0.153
-0.02
0.073
-0.003
-0.21
-0.248
-0.205
-0.155
-0.069
0.014
0.053
0.063
0.186
0.247
0.029
-0.16
-0.165
0.255
0.346
0.013
-0.251
-0.056
-0.001
-0.133
-0.233
-0.262
-0.319
-0.312
-0.226
-0.197
-0.195
-0.145
-0.081
-0.079
-0.118
-0.104
-0.016
0.02
0.001
-0.064
-0.048
-0.042
-0.083
-0.211
-0.18
-0.028
0.18
0.395
0.531
0.458
0.427
0.602
0.552
0.169
-0.288
-0.885
-1.182
-1.207
-1.055
-0.897
-0.674
-0.356
-0.074
0.08
0.107
0.076
0.167
0.204
0.203
0.199
0.239
0.242
0.239
0.202
0.259
0.291
0.273
0.25
0.237
0.267
0.28
0.282
0.274
0.28
0.281
0.318
0.317
0.306
0.304
0.291
0.296
0.308
0.342
0.32
0.325
0.348
0.357
0.325
0.316
0.306
0.308
0.305
0.292
0.267
0.281
0.262
0.219
0.195
0.193
0.187
0.162
0.094
0.081
0.117
0.063
0.039
-0.011
0.009
-0.032
-0.047
-0.087
-0.114
-0.108
-0.136
-0.175
-0.147
-0.168
-0.227
-0.204
-0.235
-0.19
-0.21
-0.231
-0.212
-0.207
-0.191
-0.161
-0.139
-0.055
-0.073
-0.16
-0.325
-0.332
-0.259
-0.183
0.016
0.083
0.034
-0.161
-0.346
-0.365
-0.349
-0.249
-0.243
-0.201
-0.188
-0.15
-0.122
-0.077
-0.062
-0.047
0.291
0.281
0.168
0.017
0.039
0.083
0.024
-0.208
-0.376
-0.417
-0.332
-0.29
-0.273
-0.238
-0.233
-0.229
-0.176
-0.218
-0.22
-0.242
-0.2
-0.168
-0.184
-0.217
-0.183
-0.167
-0.223
-0.165
-0.182
-0.137
-0.115
-0.144
-0.154
-0.154
-0.128
-0.087
-0.001
0.09
0.271
0.376
0.525
0.63
0.711
0.368
-0.162
-0.696
-1.1
-1.207
-1.121
-0.905
-0.707
-0.403
-0.134
-0.005
0.089
0.109
0.095
0.103
0.143
0.18
0.206
0.258
0.229
0.159
0.112
0.122
0.149
0.255
0.265
0.225
0.159
0.132
0.158
0.215
0.235
0.243
0.254
0.245
0.209
0.267
0.271
0.312
0.382
0.447
0.466
0.541
0.748
0.721
0.438
0.002
-0.26
-0.164
0.024
0.139
0.182
0.165
0.176
0.181
0.187
0.149
0.144
0.178
0.18
0.1
0.058
0.045
0.058
0.085
0.1
0.073
0.007
-0.12
-0.238
-0.246
-0.197
-0.164
-0.188
-0.202
-0.193
-0.181
-0.199
-0.193
-0.201
-0.199
-0.177
-0.194
-0.198
-0.176
-0.159
-0.17
-0.16
-0.164
-0.145
-0.15
-0.133
-0.152
-0.159
-0.122
-0.029
-0.021
-0.093
-0.133
-0.223
-0.197
-0.116
-0.11
-0.111
-0.11
-0.078
-0.025
-0.042
-0.054
-0.045
-0.036
0.038
0.017
-0.005
0.023
0.003
-0.02
-0.045
-0.089
-0.1
-0.105
-0.12
-0.124
-0.125
-0.13
-0.161
-0.127
-0.009
0.036
0.007
-0.127
-0.222
-0.231
-0.225
-0.193
-0.182
-0.148
-0.117
-0.094
-0.091
-0.108
-0.12
-0.125
-0.066
0.051
0.14
0.372
0.484
0.659
0.798
0.659
0.184
-0.356
-0.96
-1.205
-1.184
-0.978
-0.763
-0.519
-0.261
-0.08
0.03
0.086
0.127
0.139
0.155
0.183
0.185
0.194
0.204
0.224
0.231
0.249
0.283
0.334
0.362
0.298
0.218
0.168
0.144
0.165
0.234
0.276
0.279
0.274
0.292
0.314
0.315
0.332
0.319
0.312
0.337
0.344
0.348
0.336
0.327
0.369
0.372
0.348
0.317
0.298
0.346
0.371
0.336
0.246
0.152
0.164
0.146
0.154
0.138
0.133
0.102
0.08
0.043
0.156
0.297
0.291
0.067
-0.209
-0.345
-0.337
-0.282
-0.241
-0.225
-0.245
-0.229
-0.202
-0.193
-0.213
-0.222
-0.18
-0.191
-0.209
-0.224
-0.201
-0.186
-0.142
-0.153
-0.155
-0.158
-0.141
-0.061
-0.021
-0.077
-0.19
-0.242
-0.195
-0.155
-0.127
-0.124
-0.156
-0.138
-0.113
-0.096
-0.106
-0.087
-0.051
-0.035
-0.046
-0.045
-0.033
-0.014
0.034
0.071
0.075
0.022
-0.027
-0.079
-0.103
-0.101
-0.105
-0.176
-0.165
-0.143
-0.125
-0.146
-0.162
-0.165
-0.15
-0.155
-0.157
-0.15
-0.142
-0.134
-0.139
-0.136
-0.12
-0.098
-0.103
-0.093
-0.074
-0.078
-0.089
-0.091
-0.044
0.093
0.185
0.358
0.512
0.644
0.822
0.702
0.257
-0.211
-0.763
-1.089
-1.115
-1.008
-0.839
-0.668
-0.415
-0.179
0.009
0.086
0.134
0.159
0.18
0.205
0.212
0.213
0.231
0.244
0.245
0.248
0.249
0.259
0.267
0.273
0.274
0.285
0.298
0.309
0.313
0.316
0.325
0.326
0.336
0.343
0.339
0.34
0.347
0.353
0.366
0.374
0.376
0.37
0.363
0.372
0.354
0.36
0.354
0.347
0.34
0.327
0.306
0.285
0.275
0.263
0.235
0.217
0.202
0.185
0.152
0.124
0.11
0.083
0.052
0.017
0.008
-0.024
-0.038
-0.063
-0.09
-0.104
-0.117
-0.141
-0.158
-0.156
-0.145
-0.165
-0.175
-0.178
-0.177
-0.172
-0.171
-0.159
-0.148
-0.141
-0.148
-0.14
-0.142
-0.136
-0.153
-0.138
-0.125
-0.117
-0.129
-0.106
-0.065
-0.041
-0.063
-0.112
-0.126
-0.126
-0.088
-0.048
0.017
0.047
0.032
-0.058
-0.122
-0.097
-0.07
-0.039
-0.045
-0.053
-0.073
-0.068
-0.07
-0.096
-0.125
-0.122
0.024
0.2
0.215
0.046
-0.215
-0.383
-0.385
-0.297
-0.291
-0.158
-0.17
-0.175
-0.163
-0.197
-0.238
-0.245
-0.21
-0.171
-0.151
-0.138
-0.088
-0.001
0.104
0.221
0.467
0.653
0.858
0.977
0.589
-0.07
-0.71
-1.244
-1.329
-1.237
-1.099
-0.963
-0.793
-0.5
-0.229
-0.053
0.007
0.047
0.148
0.198
0.173
0.097
0.13
0.17
0.227
0.232
0.262
0.286
0.256
0.195
0.116
0.131
0.195
0.218
0.181
0.196
0.203
0.194
0.215
0.252
0.267
0.262
0.288
0.327
0.327
0.333
0.343
0.357
0.386
0.413
0.536
0.465
0.424
0.205
0.079
0.078
0.123
0.182
0.196
0.182
0.186
0.18
0.173
0.145
0.112
0.104
0.088
0.056
0.023
0.01
-0.008
-0.032
-0.069
-0.085
-0.099
-0.124
-0.138
-0.154
-0.159
-0.162
-0.172
-0.183
-0.178
-0.164
-0.177
-0.185
-0.164
-0.15
-0.141
-0.146
-0.168
-0.163
-0.147
-0.128
-0.132
-0.131
-0.133
-0.111
-0.111
-0.103
-0.097
-0.086
-0.093
-0.073
-0.045
-0.027
-0.005
-0.011
0.001
-0.002
0.006
0.032
0.056
0.055
0.053
0.016
-0.002
-0.014
-0.028
-0.051
-0.077
-0.093
-0.094
-0.1
-0.106
-0.101
-0.121
-0.132
-0.129
-0.12
-0.117
-0.119
-0.127
-0.117
-0.123
-0.118
-0.113
-0.099
-0.098
-0.106
-0.1
-0.105
-0.096
-0.049
0.081
0.184
0.371
0.517
0.605
0.741
0.64
0.203
-0.289
-0.852
-1.208
-1.257
-1.17
-0.983
-0.792
-0.53
-0.272
-0.07
0.034
0.095
0.12
0.139
0.16
0.169
0.176
0.185
0.202
0.205
0.21
0.211
0.222
0.23
0.235
0.234
0.243
0.241
0.252
0.243
0.253
0.261
0.27
0.266
0.266
0.272
0.275
0.287
0.279
0.294
0.299
0.303
0.302
0.305
0.304
0.305
0.286
0.282
0.275
0.268
0.247
0.23
0.224
0.204
0.183
0.159
0.14
0.118
0.1
0.071
0.05
0.03
0.007
-0.026
-0.051
-0.07
-0.091
-0.122
-0.14
-0.149
-0.165
-0.178
-0.193
-0.205
-0.218
-0.221
-0.228
-0.227
-0.221
-0.219
-0.227
-0.225
-0.205
-0.198
-0.195
-0.192
-0.18
-0.185
-0.171
-0.163
-0.153
-0.149
-0.143
-0.147
-0.145
-0.138
-0.129
-0.132
-0.128
-0.118
-0.109
-0.093
-0.073
-0.046
-0.043
-0.05
-0.052
-0.035
-0.002
0.01
0
-0.014
-0.041
-0.061
-0.076
-0.095
-0.111
-0.138
-0.142
-0.14
-0.142
-0.161
-0.169
-0.178
-0.173
-0.165
-0.164
-0.168
-0.165
-0.161
-0.152
-0.151
-0.146
-0.127
-0.121
-0.113
-0.114
-0.109
-0.116
-0.092
-0.013
0.111
0.244
0.429
0.529
0.651
0.709
0.464
-0.066
-0.599
-1.121
-1.322
-1.303
-1.092
-0.874
-0.598
-0.305
-0.083
0.038
0.106
0.143
0.17
0.188
0.197
0.208
0.222
0.23
0.246
0.246
0.252
0.259
0.262
0.266
0.271
0.272
0.284
0.29
0.292
0.295
0.301
0.312
0.317
0.319
0.33
0.344
0.336
0.346
0.348
0.362
0.364
0.37
0.374
0.374
0.373
0.373
0.362
0.354
0.35
0.336
0.325
0.301
0.282
0.257
0.24
0.223
0.205
0.174
0.147
0.124
0.1
0.076
0.047
0.014
-0.011
-0.033
-0.066
-0.083
-0.095
-0.107
-0.135
-0.152
-0.17
-0.169
-0.178
-0.187
-0.191
-0.195
-0.192
-0.193
-0.186
-0.176
-0.167
-0.167
-0.159
-0.147
-0.142
-0.136
-0.13
-0.127
-0.121
-0.112
-0.102
-0.103
-0.102
-0.093
-0.097
-0.09
-0.09
-0.088
-0.087
-0.09
-0.092
-0.091
-0.096
-0.098
-0.102
-0.098
-0.103
-0.108
-0.116
-0.109
-0.102
-0.107
-0.072
-0.046
-0.031
-0.027
-0.025
-0.02
-0.014
0.003
0.008
0.004
-0.009
-0.038
-0.047
-0.053
-0.067
-0.085
-0.104
-0.102
-0.111
-0.115
-0.128
-0.134
-0.134
-0.128
-0.131
-0.134
-0.134
-0.132
-0.125
-0.12
-0.11
-0.102
-0.095
-0.097
-0.092
-0.087
-0.095
-0.073
0.011
0.123
0.256
0.434
0.551
0.644
0.681
0.479
-0.046
-0.551
-1.052
-1.273
-1.269
-1.04
-0.814
-0.512
-0.232
-0.036
0.059
0.113
0.146
0.17
0.186
0.198
0.206
0.21
0.228
0.24
0.243
0.239
0.253
0.256
0.258
0.258
0.268
0.274
0.278
0.279
0.284
0.297
0.298
0.306
0.31
0.32
0.329
0.336
0.329
0.343
0.342
0.34
0.344
0.346
0.344
0.351
0.34
0.335
0.323
0.314
0.302
0.283
0.273
0.256
0.244
0.215
0.207
0.19
0.168
0.143
0.126
0.099
0.075
0.05
0.023
-0.004
-0.029
-0.058
-0.083
-0.102
-0.128
-0.144
-0.162
-0.17
-0.179
-0.197
-0.202
-0.208
-0.202
-0.2
-0.205
-0.204
-0.195
-0.19
-0.186
-0.186
-0.181
-0.18
-0.176
-0.166
-0.151
-0.163
-0.154
-0.15
-0.146
-0.139
-0.135
-0.128
-0.127
-0.119
-0.12
-0.114
-0.114
-0.111
-0.117
-0.117
-0.119
-0.113
-0.11
-0.117
-0.112
-0.115
-0.107
-0.109
-0.104
-0.111
-0.107
-0.106
-0.106
-0.109
-0.102
-0.102
-0.097
-0.094
-0.091
-0.09
-0.089
-0.086
-0.085
-0.076
-0.072
-0.066
-0.071
-0.064
-0.061
-0.061
-0.057
-0.05
-0.046
-0.045
-0.045
-0.041
-0.039
-0.033
-0.033
-0.034
-0.023
-0.02
-0.02
-0.017
-0.016
-0.017
-0.015
-0.01
0.005
0.009
0.026
0.055
0.07
0.089
0.089
0.092
0.098
0.115
0.12
0.115
0.113
0.094
0.076
0.069
0.053
0.035
0.02
0.013
0.007
0.001
-0.004
-0.014
-0.018
-0.02
-0.014
-0.019
-0.018
-0.022
-0.021
-0.022
-0.019
-0.012
-0.004
-0.004
-0.002
-0.003
-0.008
0.008
0.08
0.196
0.281
0.455
0.58
0.678
0.725
0.607
0.123
-0.372
-0.871
-1.165
-1.203
-1.008
-0.804
-0.532
-0.249
-0.023
0.091
0.145
0.185
0.205
0.226
0.24
0.244
0.245
0.254
0.268
0.266
0.268
0.28
0.283
0.281
0.285
0.289
0.298
0.303
0.304
0.3
0.302
0.302
0.301
0.3
0.31
0.32
0.319
0.32
0.323
0.325
0.321
0.32
0.311
0.312
0.307
0.306
0.298
0.295
0.289
0.275
0.262
0.251
0.239
0.221
0.208
0.194
0.181
0.161
0.143
0.128
0.104
0.086
0.062
0.034
0.009
-0.013
-0.035
-0.076
-0.094
-0.107
-0.133
-0.149
-0.176
-0.191
-0.207
-0.216
-0.228
-0.237
-0.235
-0.236
-0.238
-0.242
-0.236
-0.239
-0.232
-0.229
-0.213
-0.217
-0.21
-0.208
-0.199
-0.2
-0.193
-0.193
-0.182
-0.177
-0.166
-0.167
-0.165
-0.16
-0.156
-0.156
-0.154
-0.155
-0.158
-0.155
-0.156
-0.156
-0.156
-0.156
-0.156
-0.15
-0.147
-0.154
-0.156
-0.16
-0.157
-0.159
-0.161
-0.153
-0.145
-0.147
-0.135
-0.133
-0.133
-0.133
-0.129
-0.127
-0.124
-0.121
-0.115
-0.108
-0.109
-0.101
-0.105
-0.102
-0.104
-0.097
-0.098
-0.091
-0.096
-0.095
-0.085
-0.085
-0.086
-0.087
-0.079
-0.078
-0.076
-0.075
-0.075
-0.075
-0.06
-0.065
-0.056
-0.061
-0.054
-0.053
-0.049
-0.039
-0.037
-0.034
-0.038
-0.025
-0.026
-0.013
-0.005
0.004
-0.004
0.015
0.031
0.05
0.068
0.07
0.075
0.088
0.11
0.122
0.117
0.109
0.097
0.079
0.074
0.056
0.038
0.014
0.009
0.003
-0.001
-0.005
-0.015
-0.022
-0.024
-0.021
-0.019
-0.015
-0.012
-0.005
-0.01
0.004
0.005
0.009
0.005
0.017
0.013
0.01
0.054
0.154
0.255
0.411
0.569
0.656
0.771
0.755
0.465
-0.036
-0.537
-1.004
-1.112
-1.075
-0.913
-0.747
-0.527
-0.273
-0.061
0.078
0.138
0.175
0.202
0.226
0.232
0.239
0.247
0.261
0.26
0.27
0.272
0.276
0.284
0.278
0.282
0.286
0.288
0.288
0.297
0.3
0.308
0.309
0.309
0.306
0.313
0.31
0.307
0.306
0.324
0.323
0.323
0.33
0.328
0.329
0.331
0.324
0.315
0.315
0.301
0.297
0.279
0.268
0.253
0.234
0.212
0.196
0.175
0.15
0.132
0.112
0.092
0.08
0.059
0.029
0.013
-0.012
-0.031
-0.051
-0.066
-0.089
-0.108
-0.126
-0.144
-0.155
-0.162
-0.173
-0.188
-0.189
-0.19
-0.204
-0.209
-0.206
-0.206
-0.204
-0.203
-0.192
-0.188
-0.18
-0.178
-0.173
-0.162
-0.156
-0.151
-0.148
-0.149
-0.146
-0.135
-0.137
-0.132
-0.132
-0.132
-0.127
-0.126
-0.122
-0.127
-0.128
-0.126
-0.121
-0.126
-0.126
-0.132
-0.125
-0.13
-0.127
-0.132
-0.134
-0.134
-0.137
-0.133
-0.128
-0.128
-0.129
-0.127
-0.127
-0.121
-0.109
-0.116
-0.123
-0.111
-0.108
-0.105
-0.104
-0.101
-0.105
-0.101
-0.092
-0.087
-0.081
-0.079
-0.075
-0.075
-0.066
-0.064
-0.062
-0.066
-0.056
-0.058
-0.053
-0.048
-0.039
-0.029
-0.012
0.011
0.027
0.039
0.043
0.056
0.074
0.091
0.09
0.085
0.059
0.037
0.033
0.02
0.002
-0.019
-0.024
-0.029
-0.031
-0.039
-0.044
-0.055
-0.054
-0.057
-0.053
-0.054
-0.048
-0.049
-0.043
-0.038
-0.036
-0.029
-0.023
-0.023
-0.025
-0.023
0.016
0.132
0.242
0.408
0.568
0.645
0.755
0.725
0.41
-0.12
-0.65
-1.114
-1.226
-1.171
-0.99
-0.797
-0.552
-0.289
-0.064
0.066
0.14
0.175
0.203
0.217
0.229
0.234
0.245
0.249
0.257
0.262
0.259
0.267
0.269
0.271
0.268
0.283
0.282
0.285
0.287
0.289
0.294
0.3
0.301
0.304
0.298
0.305
0.303
0.304
0.305
0.307
0.313
0.305
0.315
0.316
0.313
0.31
0.307
0.297
0.291
0.282
0.263
0.246
0.23
0.216
0.191
0.174
0.159
0.144
0.114
0.092
0.065
0.044
0.021
-0.005
-0.027
-0.05
-0.074
-0.103
-0.117
-0.134
-0.153
-0.173
-0.18
-0.195
-0.209
-0.223
-0.228
-0.237
-0.237
-0.235
-0.235
-0.236
-0.226
-0.22
-0.215
-0.206
-0.196
-0.191
-0.188
-0.172
-0.163
-0.159
-0.156
-0.148
-0.147
-0.141
-0.139
-0.138
-0.132
-0.131
-0.125
-0.13
-0.13
-0.129
-0.125
-0.131
-0.136
-0.139
-0.137
-0.144
-0.136
-0.142
-0.144
-0.144
-0.142
-0.146
-0.148
-0.143
-0.145
-0.149
-0.143
-0.139
-0.139
-0.129
-0.127
-0.124
-0.124
-0.117
-0.117
-0.115
-0.11
-0.108
-0.101
-0.1
-0.096
-0.102
-0.09
-0.092
-0.087
-0.093
-0.086
-0.079
-0.074
-0.076
-0.068
-0.067
-0.067
-0.062
-0.062
-0.058
-0.058
-0.054
-0.054
-0.054
-0.051
-0.046
-0.051
-0.045
-0.052
-0.048
-0.042
-0.036
-0.039
-0.038
-0.033
-0.03
-0.023
-0.013
-0.003
0.013
0.04
0.055
0.07
0.073
0.076
0.083
0.101
0.106
0.099
0.092
0.061
0.049
0.037
0.022
0.002
-0.013
-0.022
-0.021
-0.031
-0.039
-0.043
-0.049
-0.046
-0.051
-0.043
-0.048
-0.047
-0.043
-0.036
-0.037
-0.029
-0.028
-0.028
-0.028
-0.036
-0.005
0.087
0.2
0.334
0.495
0.602
0.692
0.703
0.507
-0.037
-0.545
-1.037
-1.276
-1.29
-1.071
-0.84
-0.545
-0.266
-0.039
0.081
0.143
0.175
0.2
0.223
0.228
0.236
0.247
0.256
0.255
0.255
0.256
0.26
0.266
0.271
0.267
0.269
0.283
0.286
0.287
0.29
0.294
0.296
0.301
0.304
0.313
0.31
0.313
0.306
0.309
0.317
0.313
0.314
0.313
0.319
0.316
0.303
0.294
0.299
0.289
0.279
0.27
0.251
0.236
0.224
0.2
0.184
0.166
0.146
0.123
0.102
0.085
0.063
0.042
0.017
0.002
-0.031
-0.05
-0.074
-0.092
-0.117
-0.139
-0.164
-0.178
-0.19
-0.199
-0.213
-0.217
-0.219
-0.223
-0.225
-0.224
-0.223
-0.222
-0.213
-0.211
-0.203
-0.19
-0.178
-0.176
-0.168
-0.16
-0.157
-0.153
-0.152
-0.147
-0.146
-0.141
-0.137
-0.134
-0.129
-0.127
-0.133
-0.127
-0.119
-0.122
-0.122
-0.116
-0.12
-0.118
-0.113
-0.114
-0.114
-0.117
-0.115
-0.116
-0.112
-0.116
-0.114
-0.114
-0.114
-0.113
-0.109
-0.11
-0.106
-0.096
-0.097
-0.093
-0.089
-0.097
-0.095
-0.084
-0.087
-0.074
-0.077
-0.07
-0.07
-0.067
-0.057
-0.053
-0.053
-0.053
-0.042
-0.046
-0.044
-0.042
-0.039
-0.039
-0.027
-0.03
-0.018
-0.015
-0.014
-0.016
-0.015
-0.009
-0.008
-0.002
0.006
0.011
0.005
0.012
0.007
0.008
0.009
0.017
0.02
0.021
0.024
0.024
0.024
0.029
0.036
0.038
0.043
0.049
0.047
0.048
0.054
0.05
0.058
0.056
0.059
0.06
0.061
0.062
0.063
0.062
0.064
0.072
0.07
0.083
0.093
0.121
0.133
0.152
0.153
0.155
0.158
0.17
0.18
0.172
0.165
0.155
0.136
0.13
0.114
0.091
0.075
0.063
0.056
0.048
0.044
0.031
0.024
0.022
0.022
0.021
0.025
0.022
0.021
0.027
0.031
0.033
0.029
0.037
0.037
0.032
0.023
0.063
0.166
0.24
0.393
0.545
0.653
0.732
0.744
0.486
-0.067
-0.541
-0.979
-1.183
-1.14
-0.919
-0.679
-0.375
-0.111
0.051
0.134
0.177
0.212
0.232
0.243
0.253
0.249
0.262
0.269
0.27
0.267
0.277
0.281
0.285
0.286
0.286
0.291
0.288
0.29
0.288
0.295
0.307
0.303
0.295
0.302
0.304
0.301
0.296
0.305
0.301
0.31
0.309
0.308
0.305
0.301
0.305
0.298
0.298
0.29
0.281
0.262
0.256
0.24
0.224
0.199
0.186
0.169
0.146
0.126
0.11
0.09
0.075
0.058
0.035
0.017
-0.001
-0.026
-0.055
-0.073
-0.095
-0.118
-0.149
-0.164
-0.18
-0.198
-0.21
-0.227
-0.231
-0.239
-0.247
-0.258
-0.243
-0.241
-0.245
-0.248
-0.242
-0.233
-0.227
-0.226
-0.217
-0.218
-0.204
-0.201
-0.193
-0.185
-0.18
-0.177
-0.178
-0.17
-0.168
-0.164
-0.166
-0.161
-0.164
-0.161
-0.158
-0.157
-0.158
-0.156
-0.153
-0.156
-0.152
-0.154
-0.151
-0.155
-0.149
-0.157
-0.161
-0.165
-0.158
-0.161
-0.159
-0.152
-0.15
-0.152
-0.15
-0.148
-0.15
-0.144
-0.146
-0.143
-0.147
-0.136
-0.138
-0.137
-0.131
-0.125
-0.13
-0.13
-0.126
-0.123
-0.122
-0.12
-0.111
-0.109
-0.105
-0.104
-0.099
-0.098
-0.097
-0.093
-0.091
-0.085
-0.083
-0.08
-0.075
-0.069
-0.064
-0.061
-0.053
-0.045
-0.042
-0.035
-0.033
-0.024
-0.023
-0.013
-0.016
-0.014
-0.009
-0.008
-0.007
-0.003
0.001
0.002
0.006
0.011
0.014
0.01
0.017
0.017
0.02
0.02
0.028
0.023
0.028
0.032
0.031
0.03
0.035
0.044
0.038
0.045
0.043
0.045
0.038
0.045
0.047
0.053
0.053
0.056
0.055
0.046
0.048
0.049
0.047
0.046
0.052
0.052
0.051
0.05
0.054
0.046
0.051
0.049
0.051
0.063
0.067
0.068
0.073
0.089
0.103
0.112
0.121
0.13
0.13
0.153
0.165
0.169
0.154
0.148
0.123
0.111
0.099
0.079
0.053
0.041
0.035
0.027
0.023
0.012
0.005
0.001
0.004
0
-0.004
-0.007
-0.003
-0.001
-0.002
0.005
0.008
0.008
0.01
0.015
0.006
0.04
0.147
0.238
0.405
0.556
0.659
0.757
0.728
0.435
-0.088
-0.594
-1.024
-1.136
-1.089
-0.898
-0.711
-0.473
-0.234
-0.034
0.081
0.132
0.168
0.197
0.212
0.218
0.22
0.231
0.237
0.244
0.242
0.244
0.249
0.255
0.249
0.251
0.256
0.257
0.256
0.255
0.252
0.264
0.265
0.263
0.264
0.275
0.275
0.272
0.276
0.282
0.284
0.276
0.277
0.279
0.282
0.282
0.274
0.269
0.271
0.272
0.259
0.247
0.236
0.221
0.199
0.179
0.167
0.146
0.129
0.117
0.096
0.077
0.061
0.033
0.006
-0.015
-0.035
-0.054
-0.076
-0.093
-0.107
-0.131
-0.147
-0.163
-0.179
-0.202
-0.208
-0.221
-0.239
-0.24
-0.243
-0.246
-0.248
-0.242
-0.242
-0.236
-0.226
-0.224
-0.221
-0.211
-0.205
-0.199
-0.196
-0.184
-0.184
-0.18
-0.169
-0.167
-0.166
-0.164
-0.157
-0.158
-0.156
-0.156
-0.152
-0.151
-0.149
-0.147
-0.142
-0.143
-0.142
-0.145
-0.146
-0.145
-0.149
-0.149
-0.152
-0.146
-0.144
-0.144
-0.145
-0.14
-0.144
-0.142
-0.14
-0.139
-0.134
-0.136
-0.134
-0.128
-0.121
-0.118
-0.124
-0.113
-0.109
-0.109
-0.104
-0.104
-0.1
-0.105
-0.097
-0.098
-0.097
-0.098
-0.088
-0.088
-0.083
-0.079
-0.083
-0.078
-0.069
-0.069
-0.068
-0.061
-0.061
-0.059
-0.058
-0.051
-0.051
-0.051
-0.047
-0.044
-0.043
-0.044
-0.037
-0.037
-0.036
-0.033
-0.031
-0.031
-0.024
-0.02
-0.018
-0.017
-0.013
-0.02
-0.015
-0.007
-0.005
-0.002
-0.004
-0.008
-0.007
-0.001
-0.003
-0.001
0.003
0.012
0.019
0.022
0.039
0.057
0.064
0.078
0.086
0.097
0.12
0.131
0.131
0.121
0.117
0.089
0.08
0.072
0.054
0.028
0.011
0.007
0.004
-0.001
-0.013
-0.012
-0.022
-0.021
-0.016
-0.017
-0.021
-0.016
-0.007
-0.003
0.001
0.006
0.003
0.009
0.004
0.005
0.057
0.192
0.279
0.463
0.608
0.701
0.792
0.692
0.314
-0.2
-0.75
-1.112
-1.177
-1.095
-0.901
-0.707
-0.459
-0.211
-0.014
0.104
0.159
0.189
0.214
0.234
0.234
0.244
0.249
0.26
0.258
0.256
0.255
0.26
0.268
0.266
0.267
0.272
0.278
0.276
0.28
0.278
0.279
0.274
0.274
0.276
0.276
0.277
0.276
0.278
0.284
0.288
0.286
0.286
0.291
0.292
0.289
0.291
0.285
0.288
0.278
0.269
0.259
0.246
0.233
0.213
0.197
0.175
0.157
0.133
0.113
0.091
0.073
0.043
0.025
0
-0.022
-0.043
-0.069
-0.095
-0.111
-0.128
-0.147
-0.164
-0.177
-0.191
-0.205
-0.216
-0.225
-0.226
-0.231
-0.232
-0.234
-0.234
-0.227
-0.22
-0.216
-0.212
-0.201
-0.197
-0.183
-0.175
-0.167
-0.166
-0.155
-0.153
-0.147
-0.147
-0.138
-0.14
-0.134
-0.127
-0.122
-0.12
-0.121
-0.119
-0.121
-0.122
-0.121
-0.118
-0.121
-0.119
-0.12
-0.124
-0.127
-0.126
-0.13
-0.127
-0.12
-0.125
-0.123
-0.118
-0.115
-0.12
-0.116
-0.115
-0.111
-0.107
-0.106
-0.106
-0.109
-0.106
-0.105
-0.103
-0.099
-0.095
-0.097
-0.096
-0.088
-0.089
-0.093
-0.086
-0.088
-0.087
-0.086
-0.082
-0.076
-0.074
-0.07
-0.063
-0.064
-0.064
-0.062
-0.062
-0.059
-0.057
-0.059
-0.063
-0.058
-0.058
-0.055
-0.052
-0.047
-0.047
-0.042
-0.036
-0.034
-0.031
-0.025
-0.024
-0.022
-0.01
-0.014
-0.014
-0.016
-0.008
-0.008
-0.008
-0.006
0.001
0.001
0.004
0.014
0.022
0.032
0.048
0.072
0.08
0.097
0.093
0.106
0.118
0.136
0.13
0.125
0.111
0.086
0.08
0.065
0.048
0.023
0.017
0.012
0.011
0.001
0
-0.003
-0.006
-0.005
-0.004
-0.007
-0.009
-0.003
0
0.008
0.007
0.012
0.01
0.017
0.014
0.016
0.069
0.205
0.286
0.472
0.6
0.695
0.751
0.672
0.277
-0.271
-0.802
-1.167
-1.259
-1.139
-0.904
-0.667
-0.367
-0.12
0.052
0.13
0.174
0.209
0.226
0.241
0.249
0.259
0.267
0.277
0.274
0.285
0.286
0.294
0.292
0.292
0.288
0.291
0.292
0.294
0.297
0.303
0.307
0.306
0.31
0.315
0.324
0.33
0.331
0.329
0.342
0.339
0.336
0.338
0.34
0.336
0.327
0.328
0.33
0.322
0.311
0.304
0.282
0.272
0.255
0.237
0.213
0.193
0.173
0.148
0.128
0.108
0.079
0.053
0.036
0.014
-0.01
-0.033
-0.055
-0.082
-0.097
-0.122
-0.144
-0.173
-0.183
-0.199
-0.217
-0.228
-0.229
-0.237
-0.241
-0.243
-0.244
-0.243
-0.242
-0.237
-0.234
-0.224
-0.219
-0.21
-0.207
-0.194
-0.191
-0.187
-0.174
-0.176
-0.171
-0.167
-0.163
-0.159
-0.156
-0.152
-0.148
-0.154
-0.146
-0.144
-0.14
-0.135
-0.134
-0.138
-0.137
-0.135
-0.138
-0.136
-0.135
-0.137
-0.141
-0.139
-0.134
-0.134
-0.137
-0.132
-0.133
-0.135
-0.134
-0.128
-0.127
-0.127
-0.124
-0.121
-0.118
-0.114
-0.103
-0.109
-0.099
-0.095
-0.092
-0.097
-0.087
-0.084
-0.076
-0.072
-0.066
-0.063
-0.061
-0.056
-0.057
-0.052
-0.05
-0.046
-0.049
-0.035
-0.044
-0.039
-0.037
-0.028
-0.031
-0.028
-0.025
-0.025
-0.03
-0.029
-0.021
-0.023
-0.014
-0.01
-0.009
-0.016
-0.01
-0.009
-0.011
-0.01
-0.011
-0.008
-0.003
0
0.003
0.004
0.004
0.009
0.008
0.014
0.012
0.014
0.013
0.02
0.016
0.018
0.022
0.03
0.026
0.028
0.032
0.028
0.029
0.03
0.036
0.029
0.034
0.036
0.041
0.031
0.035
0.041
0.05
0.055
0.072
0.087
0.104
0.125
0.128
0.133
0.144
0.159
0.154
0.154
0.144
0.128
0.109
0.105
0.076
0.058
0.044
0.03
0.025
0.017
0.011
0.005
-0.001
-0.006
-0.006
-0.005
-0.008
-0.007
-0.002
0.006
0.01
0.011
0.013
0.015
0.014
0.005
0.026
0.123
0.212
0.357
0.511
0.629
0.714
0.733
0.532
-0.012
-0.499
-0.958
-1.186
-1.189
-0.972
-0.739
-0.435
-0.172
0.017
0.106
0.156
0.191
0.214
0.228
0.231
0.234
0.245
0.258
0.261
0.255
0.257
0.267
0.263
0.267
0.273
0.276
0.273
0.277
0.272
0.274
0.277
0.277
0.273
0.274
0.281
0.282
0.277
0.286
0.294
0.287
0.287
0.286
0.291
0.282
0.281
0.28
0.282
0.279
0.274
0.264
0.248
0.239
0.225
0.201
0.182
0.166
0.144
0.129
0.103
0.084
0.065
0.045
0.017
-0.004
-0.022
-0.041
-0.068
-0.093
-0.112
-0.134
-0.152
-0.182
-0.195
-0.219
-0.232
-0.251
-0.263
-0.272
-0.274
-0.284
-0.285
-0.277
-0.273
-0.269
-0.271
-0.261
-0.255
-0.245
-0.24
-0.23
-0.228
-0.218
-0.22
-0.212
-0.206
-0.198
-0.202
-0.199
-0.19
-0.185
-0.183
-0.179
-0.177
-0.175
-0.165
-0.164
-0.166
-0.167
-0.164
-0.165
-0.163
-0.158
-0.154
-0.16
-0.161
-0.156
-0.155
-0.155
-0.147
-0.147
-0.149
-0.154
-0.153
-0.145
-0.143
-0.139
-0.142
-0.14
-0.136
-0.132
-0.136
-0.135
-0.127
-0.126
-0.118
-0.112
-0.106
-0.109
-0.107
-0.101
-0.098
-0.093
-0.088
-0.086
-0.082
-0.08
-0.079
-0.078
-0.07
-0.063
-0.066
-0.061
-0.058
-0.05
-0.049
-0.04
-0.045
-0.043
-0.035
-0.032
-0.025
-0.026
-0.015
-0.011
-0.006
-0.01
0.002
0.001
0.004
0.002
0.004
0.01
0.012
0.013
0.017
0.02
0.025
0.03
0.03
0.042
0.049
0.072
0.088
0.1
0.106
0.114
0.127
0.148
0.15
0.152
0.143
0.122
0.102
0.097
0.08
0.059
0.037
0.023
0.023
0.018
0.01
-0.001
-0.004
-0.008
-0.007
-0.008
-0.008
-0.005
-0.004
0.005
0.01
0.008
0.018
0.019
0.023
0.022
0.026
0.087
0.206
0.296
0.48
0.623
0.738
0.829
0.722
0.28
-0.209
-0.767
-1.076
-1.117
-1.01
-0.825
-0.628
-0.368
-0.129
0.045
0.133
0.174
0.202
0.225
0.243
0.252
0.257
0.267
0.275
0.282
0.281
0.283
0.286
0.29
0.279
0.283
0.287
0.299
0.296
0.291
0.298
0.308
0.3
0.303
0.306
0.311
0.316
0.315
0.313
0.316
0.326
0.322
0.328
0.334
0.337
0.337
0.333
0.325
0.316
0.315
0.306
0.297
0.282
0.271
0.251
0.228
0.201
0.189
0.163
0.141
0.119
0.097
0.067
0.041
0.025
-0.001
-0.022
-0.049
-0.068
-0.093
-0.112
-0.128
-0.149
-0.165
-0.182
-0.198
-0.213
-0.218
-0.223
-0.226
-0.23
-0.226
-0.228
-0.223
-0.218
-0.216
-0.209
-0.193
-0.188
-0.181
-0.178
-0.17
-0.165
-0.163
-0.152
-0.142
-0.137
-0.138
-0.128
-0.125
-0.119
-0.117
-0.119
-0.12
-0.111
-0.11
-0.115
-0.111
-0.116
-0.124
-0.124
-0.12
-0.12
-0.114
-0.113
-0.111
-0.117
-0.116
-0.119
-0.109
-0.111
-0.107
-0.118
-0.109
-0.108
-0.104
-0.102
-0.103
-0.097
-0.099
-0.097
-0.092
-0.098
-0.098
-0.09
-0.092
-0.086
-0.09
-0.081
-0.084
-0.084
-0.077
-0.077
-0.072
-0.064
-0.059
-0.056
-0.041
-0.016
0.002
0.008
0.022
0.014
0.027
0.047
0.064
0.063
0.051
0.029
0.009
0.005
-0.012
-0.026
-0.051
-0.063
-0.063
-0.062
-0.078
-0.081
-0.085
-0.087
-0.085
-0.079
-0.069
-0.071
-0.068
-0.065
-0.058
-0.056
-0.049
-0.048
-0.044
-0.047
-0.052
-0.02
0.088
0.204
0.353
0.539
0.625
0.744
0.732
0.455
-0.054
-0.574
-1.066
-1.201
-1.172
-1.012
-0.828
-0.604
-0.333
-0.112
0.032
0.111
0.15
0.178
0.195
0.212
0.223
0.224
0.242
0.249
0.251
0.242
0.254
0.258
0.26
0.26
0.268
0.272
0.272
0.27
0.271
0.272
0.283
0.282
0.281
0.287
0.292
0.296
0.289
0.303
0.303
0.306
0.309
0.311
0.312
0.315
0.316
0.307
0.303
0.301
0.295
0.271
0.27
0.246
0.226
0.2
0.18
0.156
0.133
0.111
0.093
0.067
0.046
0.024
-0.008
-0.029
-0.049
-0.068
-0.095
-0.104
-0.126
-0.144
-0.158
-0.169
-0.19
-0.197
-0.202
-0.216
-0.225
-0.229
-0.236
-0.242
-0.234
-0.229
-0.222
-0.225
-0.218
-0.209
-0.199
-0.195
-0.182
-0.178
-0.167
-0.158
-0.149
-0.141
-0.135
-0.13
-0.129
-0.119
-0.118
-0.11
-0.112
-0.109
-0.106
-0.112
-0.111
-0.114
-0.113
-0.112
-0.112
-0.115
-0.108
-0.103
-0.104
-0.113
-0.107
-0.108
-0.11
-0.113
-0.107
-0.102
-0.101
-0.099
-0.097
-0.09
-0.091
-0.089
-0.093
-0.085
-0.078
-0.074
-0.076
-0.068
-0.069
-0.063
-0.058
-0.052
-0.044
-0.022
0.005
0.019
0.033
0.037
0.035
0.033
0.064
0.07
0.073
0.056
0.041
0.016
0.015
0.005
-0.007
-0.033
-0.039
-0.043
-0.054
-0.054
-0.06
-0.069
-0.077
-0.075
-0.071
-0.071
-0.075
-0.063
-0.058
-0.058
-0.051
-0.047
-0.041
-0.041
-0.036
-0.037
-0.043
-0.01
0.103
0.209
0.366
0.536
0.629
0.746
0.742
0.443
-0.118
-0.644
-1.135
-1.283
-1.238
-1.025
-0.815
-0.532
-0.249
-0.027
0.084
0.146
0.183
0.204
0.226
0.242
0.248
0.253
0.264
0.269
0.273
0.276
0.279
0.276
0.287
0.291
0.296
0.297
0.299
0.299
0.308
0.316
0.32
0.321
0.324
0.331
0.333
0.334
0.334
0.341
0.341
0.341
0.343
0.342
0.34
0.341
0.332
0.33
0.325
0.316
0.297
0.288
0.276
0.253
0.231
0.207
0.188
0.16
0.14
0.115
0.09
0.069
0.047
0.016
-0.011
-0.032
-0.058
-0.081
-0.099
-0.112
-0.137
-0.155
-0.173
-0.185
-0.198
-0.211
-0.225
-0.229
-0.227
-0.23
-0.236
-0.234
-0.223
-0.221
-0.212
-0.209
-0.195
-0.19
-0.182
-0.179
-0.167
-0.159
-0.147
-0.144
-0.14
-0.129
-0.122
-0.117
-0.111
-0.105
-0.103
-0.099
-0.093
-0.09
-0.097
-0.095
-0.101
-0.093
-0.086
-0.089
-0.099
-0.101
-0.097
-0.095
-0.096
-0.098
-0.092
-0.095
-0.089
-0.095
-0.089
-0.09
-0.087
-0.09
-0.089
-0.088
-0.08
-0.076
-0.079
-0.074
-0.072
-0.068
-0.063
-0.06
-0.06
-0.058
-0.057
-0.051
-0.057
-0.053
-0.055
-0.052
-0.048
-0.048
-0.046
-0.042
-0.04
-0.035
-0.025
-0.015
0.005
0.021
0.044
0.055
0.057
0.061
0.06
0.061
0.071
0.077
0.072
0.059
0.032
0.02
0.011
-0.003
-0.019
-0.026
-0.042
-0.047
-0.058
-0.063
-0.066
-0.065
-0.066
-0.067
-0.063
-0.064
-0.057
-0.059
-0.049
-0.05
-0.041
-0.037
-0.025
-0.028
-0.026
-0.026
-0.03
-0.013
0.058
0.183
0.284
0.471
0.602
0.69
0.717
0.602
0.095
-0.412
-0.923
-1.231
-1.282
-1.069
-0.84
-0.535
-0.239
-0.012
0.099
0.16
0.195
0.214
0.236
0.247
0.255
0.254
0.274
0.271
0.271
0.269
0.274
0.284
0.286
0.289
0.292
0.298
0.298
0.298
0.301
0.31
0.313
0.317
0.316
0.329
0.332
0.326
0.329
0.341
0.341
0.334
0.339
0.338
0.342
0.348
0.335
0.326
0.331
0.314
0.301
0.284
0.275
0.247
0.224
0.209
0.187
0.166
0.145
0.123
0.1
0.078
0.054
0.03
-0.002
-0.02
-0.041
-0.067
-0.09
-0.108
-0.128
-0.15
-0.167
-0.181
-0.193
-0.197
-0.209
-0.221
-0.225
-0.236
-0.239
-0.245
-0.233
-0.235
-0.232
-0.233
-0.226
-0.219
-0.214
-0.205
-0.198
-0.192
-0.182
-0.172
-0.176
-0.164
-0.154
-0.16
-0.162
-0.156
-0.153
-0.153
-0.156
-0.15
-0.152
-0.152
-0.146
-0.15
-0.143
-0.147
-0.149
-0.149
-0.154
-0.151
-0.145
-0.147
-0.149
-0.157
-0.159
-0.157
-0.154
-0.156
-0.157
-0.145
-0.141
-0.141
-0.136
-0.13
-0.13
-0.122
-0.126
-0.124
-0.115
-0.112
-0.114
-0.109
-0.102
-0.094
-0.099
-0.097
-0.088
-0.091
-0.082
-0.088
-0.081
-0.081
-0.071
-0.072
-0.066
-0.061
-0.058
-0.055
-0.052
-0.046
-0.041
-0.036
-0.035
-0.032
-0.035
-0.033
-0.029
-0.028
-0.03
-0.026
-0.02
-0.016
-0.013
-0.004
-0.007
-0.007
0.001
0.001
0.002
0.006
0.011
0.009
0.015
0.013
0.013
0.02
0.034
0.05
0.072
0.088
0.093
0.098
0.107
0.107
0.11
0.129
0.127
0.124
0.105
0.087
0.076
0.071
0.054
0.043
0.031
0.018
0.012
0.004
-0.008
-0.018
-0.017
-0.021
-0.015
-0.019
-0.016
-0.022
-0.015
-0.012
-0.009
-0.003
0.004
0.002
0.006
0.02
0.017
0.008
0.028
0.11
0.208
0.329
0.5
0.615
0.7
0.731
0.587
0.067
-0.429
-0.914
-1.178
-1.197
-0.98
-0.758
-0.464
-0.189
0.01
0.11
0.17
0.203
0.229
0.244
0.248
0.241
0.25
0.26
0.272
0.272
0.271
0.282
0.282
0.279
0.275
0.283
0.288
0.29
0.29
0.297
0.299
0.309
0.309
0.309
0.319
0.313
0.32
0.318
0.323
0.323
0.329
0.324
0.326
0.328
0.328
0.314
0.31
0.307
0.3
0.286
0.271
0.268
0.248
0.231
0.215
0.196
0.172
0.159
0.135
0.12
0.096
0.076
0.05
0.029
0.011
-0.015
-0.042
-0.065
-0.077
-0.098
-0.124
-0.145
-0.164
-0.182
-0.188
-0.207
-0.213
-0.222
-0.22
-0.226
-0.232
-0.228
-0.225
-0.226
-0.225
-0.221
-0.22
-0.212
-0.202
-0.195
-0.194
-0.181
-0.175
-0.172
-0.161
-0.157
-0.162
-0.154
-0.148
-0.148
-0.14
-0.134
-0.13
-0.135
-0.13
-0.131
-0.128
-0.128
-0.124
-0.13
-0.127
-0.12
-0.115
-0.125
-0.123
-0.122
-0.12
-0.119
-0.113
-0.108
-0.11
-0.102
-0.103
-0.106
-0.107
-0.101
-0.098
-0.097
-0.091
-0.096
-0.09
-0.09
-0.091
-0.089
-0.082
-0.08
-0.075
-0.075
-0.071
-0.069
-0.063
-0.056
-0.055
-0.057
-0.053
-0.047
-0.049
-0.052
-0.051
-0.042
-0.042
-0.036
-0.037
-0.026
-0.031
-0.024
-0.026
-0.026
-0.03
-0.028
-0.022
-0.02
-0.014
-0.007
-0.005
0.002
0.013
0.024
0.051
0.066
0.076
0.076
0.097
0.117
0.125
0.124
0.114
0.09
0.079
0.072
0.047
0.025
0.01
0.002
-0.009
-0.011
-0.022
-0.024
-0.028
-0.03
-0.029
-0.027
-0.028
-0.025
-0.028
-0.022
-0.013
-0.006
-0.001
-0.003
-0.001
-0.005
-0.004
-0.001
0.049
0.177
0.267
0.445
0.588
0.692
0.799
0.705
0.296
-0.187
-0.738
-1.081
-1.143
-1.052
-0.881
-0.7
-0.456
-0.21
-0.016
0.088
0.146
0.175
0.195
0.204
0.226
0.227
0.232
0.241
0.254
0.255
0.254
0.256
0.263
0.257
0.26
0.265
0.274
0.273
0.27
0.276
0.274
0.283
0.28
0.282
0.275
0.285
0.292
0.289
0.29
0.295
0.291
0.291
0.292
0.3
0.295
0.293
0.293
0.281
0.278
0.259
0.248
0.225
0.207
0.184
0.166
0.149
0.133
0.106
0.086
0.074
0.05
0.025
-0.005
-0.03
-0.057
-0.067
-0.085
-0.107
-0.13
-0.142
-0.162
-0.176
-0.185
-0.199
-0.214
-0.228
-0.229
-0.237
-0.239
-0.244
-0.238
-0.236
-0.226
-0.225
-0.222
-0.213
-0.206
-0.198
-0.187
-0.168
-0.166
-0.157
-0.152
-0.146
-0.145
-0.136
-0.132
-0.125
-0.126
-0.115
-0.116
-0.112
-0.103
-0.101
-0.104
-0.103
-0.097
-0.098
-0.091
-0.103
-0.102
-0.106
-0.099
-0.098
-0.104
-0.111
-0.105
-0.108
-0.107
-0.1
-0.099
-0.103
-0.1
-0.091
-0.093
-0.09
-0.091
-0.091
-0.091
-0.086
-0.085
-0.075
-0.079
-0.074
-0.074
-0.073
-0.077
-0.076
-0.076
-0.073
-0.064
-0.063
-0.064
-0.061
-0.058
-0.063
-0.056
-0.057
-0.055
-0.051
-0.046
-0.043
-0.042
-0.033
-0.036
-0.036
-0.034
-0.027
-0.026
-0.017
-0.014
-0.019
-0.01
0.013
0.025
0.045
0.057
0.055
0.065
0.078
0.093
0.093
0.094
0.077
0.052
0.041
0.026
0.004
-0.013
-0.023
-0.032
-0.028
-0.036
-0.04
-0.045
-0.049
-0.047
-0.044
-0.048
-0.045
-0.041
-0.047
-0.053
-0.04
-0.038
-0.037
-0.034
-0.027
-0.033
-0.031
0.013
0.133
0.235
0.401
0.567
0.647
0.758
0.724
0.4
-0.149
-0.668
-1.124
-1.232
-1.176
-0.984
-0.791
-0.539
-0.264
-0.059
0.067
0.132
0.169
0.187
0.211
0.223
0.226
0.231
0.247
0.246
0.247
0.254
0.263
0.264
0.263
0.264
0.266
0.272
0.271
0.277
0.275
0.285
0.285
0.285
0.285
0.298
0.303
0.306
0.307
0.306
0.302
0.303
0.31
0.308
0.31
0.302
0.301
0.293
0.289
0.278
0.265
0.248
0.235
0.217
0.197
0.178
0.15
0.128
0.11
0.099
0.067
0.044
0.019
-0.004
-0.033
-0.044
-0.068
-0.087
-0.107
-0.126
-0.141
-0.157
-0.171
-0.187
-0.191
-0.202
-0.213
-0.223
-0.23
-0.236
-0.235
-0.239
-0.239
-0.236
-0.232
-0.227
-0.217
-0.208
-0.208
-0.195
-0.192
-0.173
-0.16
-0.155
-0.149
-0.139
-0.136
-0.125
-0.119
-0.111
-0.113
-0.109
-0.101
-0.098
-0.094
-0.096
-0.092
-0.098
-0.088
-0.088
-0.09
-0.097
-0.096
-0.103
-0.105
-0.104
-0.101
-0.099
-0.104
-0.101
-0.102
-0.106
-0.106
-0.105
-0.106
-0.112
-0.108
-0.107
-0.105
-0.102
-0.105
-0.106
-0.099
-0.091
-0.088
-0.084
-0.079
-0.078
-0.073
-0.069
-0.066
-0.068
-0.063
-0.066
-0.063
-0.066
-0.061
-0.059
-0.058
-0.055
-0.054
-0.048
-0.042
-0.038
-0.044
-0.038
-0.032
-0.031
-0.032
-0.027
-0.023
-0.022
-0.019
-0.016
-0.013
-0.015
-0.006
-0.006
-0.003
0.002
0.002
0.006
0.013
0.015
0.015
0.013
0.016
-0.007
0.028
0.03
0.034
0.037
0.035
0.033
0.033
0.034
0.047
0.055
0.066
0.09
0.104
0.121
0.118
0.125
0.142
0.158
0.154
0.143
0.136
0.117
0.111
0.089
0.07
0.053
0.05
0.037
0.035
0.03
0.025
0.018
0.02
0.018
0.017
0.016
0.015
0.017
0.015
0.022
0.018
0.026
0.03
0.036
0.031
0.041
0.033
0.035
0.089
0.225
0.305
0.487
0.62
0.705
0.759
0.71
0.319
-0.236
-0.737
-1.125
-1.236
-1.115
-0.887
-0.638
-0.342
-0.091
0.069
0.148
0.189
0.22
0.242
0.257
0.262
0.272
0.278
0.295
0.292
0.293
0.292
0.301
0.304
0.301
0.308
0.312
0.316
0.315
0.316
0.319
0.323
0.322
0.326
0.325
0.338
0.336
0.332
0.339
0.343
0.341
0.338
0.341
0.342
0.346
0.338
0.333
0.324
0.32
0.305
0.295
0.278
0.265
0.237
0.218
0.201
0.183
0.155
0.129
0.114
0.089
0.059
0.033
0.015
-0.017
-0.032
-0.064
-0.09
-0.117
-0.13
-0.16
-0.185
-0.2
-0.22
-0.231
-0.248
-0.247
-0.261
-0.259
-0.265
-0.267
-0.27
-0.263
-0.26
-0.26
-0.26
-0.253
-0.243
-0.242
-0.228
-0.219
-0.211
-0.205
-0.195
-0.19
-0.18
-0.176
-0.166
-0.164
-0.15
-0.152
-0.148
-0.141
-0.134
-0.138
-0.132
-0.126
-0.123
-0.122
-0.127
-0.12
-0.12
-0.123
-0.124
-0.123
-0.13
-0.125
-0.124
-0.127
-0.124
-0.123
-0.131
-0.132
-0.128
-0.131
-0.131
-0.131
-0.125
-0.125
-0.117
-0.117
-0.117
-0.116
-0.109
-0.111
-0.111
-0.105
-0.113
-0.111
-0.103
-0.097
-0.1
-0.093
-0.088
-0.083
-0.084
-0.078
-0.081
-0.077
-0.075
-0.074
-0.076
-0.074
-0.064
-0.065
-0.065
-0.06
-0.044
-0.054
-0.041
-0.043
-0.045
-0.055
-0.043
-0.042
-0.043
-0.041
-0.038
-0.039
-0.033
-0.025
-0.028
-0.022
-0.019
-0.021
-0.024
-0.015
-0.014
-0.012
-0.014
-0.012
-0.009
-0.007
-0.001
0.007
-0.002
0.005
0.018
0.018
0.014
0.016
0.018
0.014
0.017
0.022
0.023
0.026
0.03
0.028
0.033
0.036
0.036
0.038
0.045
0.051
0.053
0.072
0.092
0.123
0.117
0.133
0.131
0.145
0.162
0.172
0.162
0.151
0.133
0.117
0.096
0.083
0.061
0.048
0.044
0.041
0.033
0.023
0.017
0.01
0.005
0.009
0.015
0.008
0.005
0.006
0.009
0.014
0.016
0.025
0.018
0.019
0.019
0.012
0.022
0.112
0.21
0.336
0.499
0.618
0.716
0.733
0.601
0.087
-0.406
-0.886
-1.155
-1.196
-0.985
-0.776
-0.483
-0.211
-0.011
0.089
0.138
0.174
0.194
0.213
0.219
0.226
0.228
0.246
0.246
0.246
0.24
0.255
0.261
0.263
0.264
0.268
0.271
0.271
0.274
0.274
0.278
0.28
0.278
0.277
0.286
0.291
0.288
0.284
0.294
0.294
0.291
0.291
0.295
0.295
0.291
0.291
0.285
0.29
0.281
0.267
0.249
0.244
0.227
0.205
0.177
0.167
0.146
0.121
0.096
0.077
0.062
0.04
0.009
-0.02
-0.045
-0.066
-0.096
-0.121
-0.134
-0.161
-0.177
-0.201
-0.214
-0.23
-0.251
-0.266
-0.273
-0.276
-0.279
-0.279
-0.29
-0.283
-0.287
-0.283
-0.285
-0.276
-0.27
-0.266
-0.262
-0.247
-0.245
-0.233
-0.217
-0.21
-0.202
-0.193
-0.186
-0.184
-0.174
-0.17
-0.164
-0.162
-0.153
-0.153
-0.151
-0.148
-0.15
-0.154
-0.153
-0.148
-0.147
-0.145
-0.141
-0.135
-0.147
-0.135
-0.141
-0.136
-0.141
-0.136
-0.135
-0.136
-0.129
-0.134
-0.131
-0.127
-0.125
-0.124
-0.126
-0.127
-0.12
-0.114
-0.112
-0.116
-0.111
-0.104
-0.095
-0.094
-0.091
-0.086
-0.084
-0.082
-0.075
-0.078
-0.08
-0.068
-0.066
-0.063
-0.065
-0.06
-0.059
-0.057
-0.051
-0.05
-0.051
-0.049
-0.043
-0.039
-0.033
-0.027
-0.02
-0.027
-0.021
-0.024
-0.014
-0.013
-0.003
-0.003
-0.002
0.006
0.009
0.013
0.014
0.016
0.017
0.024
0.027
0.029
0.025
0.03
0.028
0.034
0.026
0.031
0.032
0.032
0.045
0.057
0.068
0.083
0.101
0.106
0.104
0.125
0.144
0.142
0.142
0.136
0.112
0.094
0.078
0.056
0.031
0.022
0.017
0.013
0.013
0.002
-0.009
-0.006
-0.006
-0.009
-0.015
-0.011
-0.007
-0.002
0.001
0.002
0.004
0.016
0.028
0.027
0.034
0.025
0.041
0.111
0.237
0.335
0.518
0.637
0.759
0.796
0.637
0.136
-0.347
-0.876
-1.1
-1.112
-0.956
-0.764
-0.556
-0.292
-0.088
0.062
0.127
0.172
0.204
0.22
0.23
0.234
0.249
0.254
0.258
0.265
0.269
0.267
0.279
0.275
0.281
0.279
0.288
0.288
0.288
0.29
0.299
0.302
0.305
0.308
0.313
0.325
0.329
0.335
0.328
0.337
0.338
0.336
0.338
0.34
0.337
0.333
0.326
0.323
0.315
0.308
0.293
0.278
0.27
0.248
0.232
0.21
0.195
0.175
0.15
0.126
0.105
0.07
0.042
0.021
-0.003
-0.028
-0.052
-0.079
-0.101
-0.116
-0.141
-0.159
-0.186
-0.201
-0.221
-0.232
-0.239
-0.242
-0.251
-0.254
-0.26
-0.264
-0.255
-0.252
-0.25
-0.253
-0.24
-0.237
-0.23
-0.227
-0.219
-0.211
-0.195
-0.187
-0.181
-0.179
-0.171
-0.154
-0.144
-0.142
-0.138
-0.121
-0.124
-0.12
-0.124
-0.113
-0.114
-0.114
-0.112
-0.11
-0.109
-0.116
-0.105
-0.106
-0.114
-0.116
-0.114
-0.122
-0.117
-0.126
-0.113
-0.121
-0.12
-0.121
-0.116
-0.118
-0.113
-0.104
-0.112
-0.108
-0.106
-0.096
-0.102
-0.1
-0.098
-0.094
-0.098
-0.094
-0.095
-0.093
-0.091
-0.077
-0.079
-0.075
-0.067
-0.063
-0.065
-0.063
-0.057
-0.051
-0.038
-0.04
-0.038
-0.041
-0.036
-0.037
-0.036
-0.036
-0.033
-0.032
-0.025
-0.024
-0.022
-0.021
-0.003
0.014
0.024
0.055
0.069
0.07
0.072
0.101
0.119
0.12
0.117
0.108
0.082
0.066
0.052
0.029
0.015
0.005
0.002
-0.007
-0.008
-0.02
-0.023
-0.027
-0.023
-0.031
-0.032
-0.028
-0.025
-0.021
-0.015
-0.005
-0.008
-0.003
0
0.002
-0.004
-0.002
0.038
0.161
0.268
0.439
0.609
0.688
0.804
0.736
0.392
-0.124
-0.665
-1.098
-1.188
-1.121
-0.945
-0.766
-0.525
-0.266
-0.066
0.066
0.138
0.177
0.204
0.223
0.224
0.234
0.245
0.255
0.254
0.258
0.259
0.261
0.267
0.267
0.262
0.266
0.279
0.275
0.27
0.272
0.281
0.282
0.29
0.289
0.296
0.293
0.302
0.302
0.309
0.313
0.315
0.309
0.319
0.324
0.319
0.312
0.31
0.311
0.297
0.287
0.267
0.253
0.235
0.215
0.195
0.174
0.157
0.135
0.111
0.093
0.073
0.043
0.019
-0.011
-0.035
-0.063
-0.083
-0.108
-0.123
-0.141
-0.155
-0.176
-0.195
-0.199
-0.211
-0.225
-0.236
-0.243
-0.253
-0.259
-0.265
-0.266
-0.268
-0.264
-0.264
-0.256
-0.247
-0.238
-0.236
-0.224
-0.211
-0.204
-0.203
-0.198
-0.181
-0.18
-0.167
-0.164
-0.152
-0.15
-0.142
-0.137
-0.134
-0.13
-0.126
-0.129
-0.128
-0.122
-0.119
-0.117
-0.12
-0.122
-0.124
-0.117
-0.114
-0.111
-0.113
-0.114
-0.117
-0.112
-0.105
-0.104
-0.106
-0.112
-0.104
-0.109
-0.105
-0.103
-0.096
-0.106
-0.099
-0.1
-0.096
-0.093
-0.084
-0.079
-0.083
-0.077
-0.073
-0.07
-0.065
-0.062
-0.063
-0.06
-0.059
-0.054
-0.054
-0.047
-0.047
-0.04
-0.034
-0.028
-0.03
-0.025
-0.016
-0.015
-0.016
-0.013
-0.008
-0.015
-0.006
-0.007
-0.005
-0.001
0.017
0.029
0.048
0.067
0.087
0.093
0.093
0.117
0.13
0.131
0.13
0.118
0.089
0.08
0.057
0.046
0.022
0.014
0.007
-0.003
-0.005
-0.014
-0.024
-0.027
-0.025
-0.028
-0.023
-0.023
-0.023
-0.025
-0.016
-0.018
-0.004
-0.002
-0.006
-0.007
-0.009
-0.017
0.021
0.148
0.248
0.409
0.567
0.661
0.767
0.75
0.453
-0.11
-0.627
-1.106
-1.253
-1.205
-0.982
-0.767
-0.488
-0.216
0.004
0.112
0.175
0.21
0.239
0.256
0.268
0.27
0.281
0.288
0.294
0.3
0.301
0.299
0.302
0.31
0.308
0.316
0.318
0.323
0.311
0.321
0.331
0.332
0.331
0.333
0.332
0.336
0.344
0.342
0.349
0.357
0.358
0.358
0.365
0.368
0.365
0.353
0.356
0.349
0.339
0.328
0.313
0.299
0.276
0.254
0.233
0.213
0.189
0.173
0.135
0.117
0.095
0.066
0.028
0.003
-0.024
-0.051
-0.073
-0.094
-0.116
-0.138
-0.156
-0.173
-0.187
-0.198
-0.215
-0.233
-0.235
-0.239
-0.245
-0.249
-0.249
-0.246
-0.245
-0.241
-0.232
-0.221
-0.213
-0.208
-0.204
-0.193
-0.183
-0.172
-0.175
-0.168
-0.163
-0.163
-0.156
-0.15
-0.146
-0.143
-0.141
-0.139
-0.135
-0.128
-0.125
-0.124
-0.124
-0.125
-0.122
-0.119
-0.119
-0.12
-0.123
-0.122
-0.12
-0.122
-0.124
-0.116
-0.122
-0.121
-0.126
-0.126
-0.127
-0.122
-0.127
-0.125
-0.127
-0.124
-0.123
-0.122
-0.116
-0.115
-0.113
-0.119
-0.108
-0.109
-0.108
-0.11
-0.108
-0.109
-0.103
-0.1
-0.1
-0.101
-0.093
-0.092
-0.087
-0.088
-0.09
-0.083
-0.077
-0.07
-0.069
-0.063
-0.065
-0.063
-0.069
-0.056
-0.058
-0.053
-0.053
-0.048
-0.044
-0.038
-0.031
-0.028
-0.026
-0.024
-0.015
-0.019
-0.017
-0.013
-0.008
-0.006
-0.004
-0.002
0.002
0.005
0.012
0.018
0.033
0.059
0.075
0.098
0.107
0.102
0.109
0.125
0.136
0.126
0.119
0.101
0.075
0.062
0.048
0.023
0.002
-0.004
-0.004
-0.016
-0.022
-0.028
-0.028
-0.033
-0.027
-0.033
-0.024
-0.023
-0.021
-0.02
-0.011
-0.001
0.001
0.004
0.004
0.01
0.002
0.011
0.068
0.19
0.285
0.471
0.604
0.688
0.716
0.644
0.198
-0.334
-0.82
-1.17
-1.248
-1.068
-0.842
-0.553
-0.265
-0.034
0.095
0.158
0.201
0.22
0.244
0.257
0.261
0.262
0.272
0.281
0.279
0.281
0.287
0.295
0.29
0.289
0.29
0.299
0.3
0.299
0.293
0.301
0.315
0.313
0.316
0.316
0.328
0.321
0.324
0.331
0.34
0.334
0.342
0.34
0.344
0.347
0.334
0.329
0.324
0.327
0.308
0.298
0.288
0.276
0.255
0.241
0.212
0.195
0.177
0.152
0.132
0.104
0.089
0.065
0.038
0.009
-0.013
-0.049
-0.072
-0.091
-0.113
-0.138
-0.161
-0.184
-0.192
-0.207
-0.219
-0.234
-0.239
-0.241
-0.253
-0.257
-0.258
-0.248
-0.244
-0.238
-0.237
-0.221
-0.223
-0.218
-0.209
-0.202
-0.195
-0.187
-0.183
-0.182
-0.177
-0.167
-0.16
-0.157
-0.147
-0.145
-0.135
-0.133
-0.134
-0.132
-0.128
-0.121
-0.128
-0.126
-0.119
-0.121
-0.119
-0.115
-0.121
-0.119
-0.12
-0.113
-0.117
-0.113
-0.112
-0.112
-0.119
-0.115
-0.119
-0.117
-0.113
-0.117
-0.116
-0.118
-0.111
-0.117
-0.116
-0.113
-0.108
-0.111
-0.106
-0.113
-0.112
-0.111
-0.098
-0.098
-0.097
-0.093
-0.095
-0.085
-0.087
-0.086
-0.084
-0.078
-0.076
-0.073
-0.076
-0.072
-0.074
-0.069
-0.066
-0.056
-0.059
-0.055
-0.052
-0.05
-0.046
-0.045
-0.045
-0.046
-0.038
-0.033
-0.027
-0.027
-0.026
-0.026
-0.026
-0.022
-0.013
-0.014
-0.011
0.002
-0.001
0.003
0.004
0.006
0.007
0.011
0.014
0.017
0.016
0.02
0.017
0.019
0.027
0.028
0.028
0.03
0.037
0.033
0.033
0.029
0.038
0.032
0.035
0.035
0.034
0.037
0.039
0.044
0.056
0.077
0.09
0.111
0.114
0.115
0.132
0.148
0.151
0.14
0.127
0.109
0.085
0.07
0.052
0.027
0.016
0.012
0.006
0.002
-0.006
-0.013
-0.016
-0.021
-0.014
-0.018
-0.014
-0.015
-0.008
-0.006
-0.006
0.001
0.012
0.012
0.009
0.017
0.002
0.012
0.082
0.182
0.28
0.458
0.589
0.688
0.724
0.635
0.146
-0.364
-0.85
-1.141
-1.18
-0.984
-0.776
-0.511
-0.242
-0.034
0.084
0.13
0.162
0.179
0.198
0.214
0.219
0.228
0.24
0.246
0.249
0.246
0.248
0.26
0.256
0.26
0.261
0.268
0.265
0.265
0.266
0.273
0.277
0.276
0.276
0.281
0.289
0.292
0.293
0.301
0.311
0.301
0.307
0.303
0.307
0.305
0.298
0.291
0.286
0.287
0.279
0.262
0.248
0.244
0.223
0.21
0.197
0.182
0.16
0.139
0.123
0.107
0.084
0.065
0.039
0.013
-0.008
-0.037
-0.064
-0.092
-0.109
-0.134
-0.155
-0.179
-0.194
-0.216
-0.223
-0.238
-0.255
-0.258
-0.264
-0.262
-0.261
-0.259
-0.263
-0.257
-0.249
-0.246
-0.248
-0.239
-0.235
-0.22
-0.215
-0.203
-0.2
-0.192
-0.179
-0.174
-0.163
-0.157
-0.154
-0.159
-0.148
-0.14
-0.136
-0.143
-0.137
-0.134
-0.135
-0.133
-0.132
-0.132
-0.127
-0.124
-0.127
-0.127
-0.123
-0.115
-0.124
-0.117
-0.12
-0.112
-0.111
-0.115
-0.119
-0.117
-0.114
-0.109
-0.109
-0.105
-0.105
-0.102
-0.098
-0.096
-0.089
-0.097
-0.091
-0.085
-0.087
-0.085
-0.078
-0.073
-0.072
-0.064
-0.063
-0.059
-0.057
-0.051
-0.051
-0.045
-0.041
-0.038
-0.044
-0.035
-0.035
-0.035
-0.027
-0.025
-0.03
-0.027
-0.025
-0.017
-0.021
-0.019
-0.013
-0.014
-0.009
-0.01
-0.013
-0.016
-0.014
-0.012
-0.016
-0.016
-0.005
-0.004
-0.003
0.002
-0.001
0.003
0.009
0.013
0.009
0.016
0.015
0.013
0.01
0.011
0.011
0.014
0.019
0.023
0.023
0.037
0.056
0.07
0.085
0.097
0.102
0.104
0.131
0.14
0.139
0.142
0.129
0.109
0.097
0.082
0.064
0.044
0.03
0.023
0.015
0.014
0.01
0.005
-0.002
0.01
0.007
0.004
-0.001
0.005
0.006
0.006
0.011
0.015
0.017
0.021
0.027
0.018
0.021
0.07
0.195
0.277
0.476
0.618
0.729
0.827
0.732
0.328
-0.156
-0.708
-1.038
-1.085
-1.003
-0.832
-0.666
-0.427
-0.194
-0.007
0.1
0.157
0.191
0.207
0.222
0.231
0.238
0.246
0.256
0.255
0.255
0.258
0.263
0.267
0.266
0.257
0.263
0.272
0.27
0.261
0.268
0.282
0.274
0.275
0.272
0.28
0.282
0.284
0.285
0.296
0.301
0.303
0.299
0.305
0.305
0.308
0.3
0.295
0.298
0.289
0.289
0.275
0.262
0.24
0.222
0.195
0.175
0.154
0.132
0.1
0.081
0.063
0.035
0.005
-0.022
-0.044
-0.071
-0.09
-0.11
-0.131
-0.157
-0.171
-0.196
-0.209
-0.219
-0.225
-0.234
-0.249
-0.25
-0.26
-0.263
-0.265
-0.252
-0.257
-0.252
-0.245
-0.237
-0.234
-0.226
-0.221
-0.216
-0.206
-0.198
-0.192
-0.184
-0.174
-0.165
-0.161
-0.155
-0.145
-0.142
-0.136
-0.134
-0.136
-0.135
-0.13
-0.131
-0.126
-0.122
-0.125
-0.122
-0.124
-0.121
-0.122
-0.118
-0.116
-0.114
-0.123
-0.116
-0.117
-0.11
-0.113
-0.113
-0.117
-0.116
-0.115
-0.114
-0.113
-0.105
-0.099
-0.102
-0.089
-0.086
-0.087
-0.081
-0.073
-0.07
-0.063
-0.065
-0.061
-0.057
-0.057
-0.05
-0.054
-0.055
-0.052
-0.043
-0.04
-0.04
-0.03
-0.028
-0.034
-0.029
-0.027
-0.023
-0.017
-0.01
-0.008
-0.014
-0.004
-0.001
0.002
-0.001
0.004
0.001
0.007
0.009
0.024
0.04
0.063
0.085
0.095
0.105
0.119
0.139
0.149
0.142
0.136
0.119
0.096
0.084
0.063
0.044
0.019
0.017
0.01
0.005
-0.008
-0.019
-0.022
-0.02
-0.018
-0.022
-0.021
-0.026
-0.02
-0.019
-0.012
-0.013
-0.005
-0.009
-0.004
-0.002
-0.013
-0.004
0.071
0.206
0.3
0.5
0.618
0.727
0.797
0.635
0.154
-0.35
-0.918
-1.164
-1.191
-1.065
-0.865
-0.671
-0.401
-0.169
0.008
0.102
0.154
0.185
0.199
0.205
0.22
0.217
0.221
0.227
0.23
0.232
0.234
0.243
0.245
0.244
0.244
0.25
0.25
0.255
0.26
0.262
0.263
0.263
0.262
0.266
0.27
0.275
0.275
0.28
0.288
0.29
0.296
0.299
0.304
0.306
0.306
0.302
0.3
0.298
0.292
0.272
0.256
0.242
0.23
0.208
0.181
0.163
0.137
0.115
0.087
0.067
0.035
0.014
-0.022
-0.046
-0.076
-0.095
-0.123
-0.146
-0.162
-0.18
-0.198
-0.215
-0.224
-0.236
-0.243
-0.253
-0.259
-0.26
-0.266
-0.276
-0.272
-0.266
-0.259
-0.257
-0.249
-0.242
-0.239
-0.231
-0.224
-0.214
-0.208
-0.202
-0.193
-0.185
-0.184
-0.176
-0.171
-0.17
-0.164
-0.152
-0.149
-0.147
-0.14
-0.137
-0.135
-0.129
-0.128
-0.133
-0.127
-0.12
-0.121
-0.125
-0.124
-0.129
-0.12
-0.115
-0.118
-0.128
-0.121
-0.118
-0.119
-0.116
-0.114
-0.115
-0.119
-0.109
-0.112
-0.109
-0.109
-0.1
-0.096
-0.093
-0.094
-0.097
-0.089
-0.088
-0.083
-0.086
-0.08
-0.08
-0.073
-0.078
-0.064
-0.068
-0.068
-0.059
-0.058
-0.056
-0.051
-0.05
-0.045
-0.04
-0.043
-0.032
-0.031
-0.026
-0.022
-0.021
-0.014
-0.009
-0.005
-0.005
-0.002
0.003
0.008
0.023
0.042
0.061
0.079
0.095
0.103
0.1
0.127
0.135
0.138
0.14
0.124
0.094
0.085
0.069
0.044
0.025
0.021
0.022
0.009
0.009
-0.001
-0.006
-0.014
-0.007
-0.013
-0.016
-0.018
-0.018
-0.015
-0.011
-0.003
-0.007
0.004
0.01
0.016
0.012
0.011
0.042
0.151
0.242
0.404
0.572
0.674
0.778
0.782
0.501
-0.066
-0.577
-1.047
-1.211
-1.166
-0.941
-0.726
-0.431
-0.173
0.025
0.125
0.18
0.213
0.231
0.247
0.258
0.264
0.271
0.281
0.285
0.288
0.29
0.299
0.3
0.296
0.291
0.297
0.307
0.311
0.306
0.308
0.315
0.312
0.312
0.319
0.325
0.325
0.326
0.324
0.338
0.338
0.345
0.344
0.349
0.35
0.348
0.344
0.342
0.342
0.328
0.321
0.308
0.294
0.272
0.256
0.227
0.219
0.193
0.172
0.14
0.115
0.091
0.063
0.033
0.001
-0.018
-0.047
-0.07
-0.095
-0.115
-0.142
-0.16
-0.182
-0.201
-0.218
-0.228
-0.241
-0.247
-0.253
-0.256
-0.266
-0.265
-0.254
-0.259
-0.255
-0.252
-0.243
-0.244
-0.236
-0.231
-0.222
-0.211
-0.2
-0.199
-0.19
-0.176
-0.173
-0.163
-0.157
-0.152
-0.148
-0.142
-0.133
-0.134
-0.132
-0.125
-0.125
-0.125
-0.122
-0.115
-0.115
-0.12
-0.118
-0.118
-0.113
-0.117
-0.113
-0.119
-0.116
-0.123
-0.124
-0.119
-0.119
-0.119
-0.121
-0.118
-0.12
-0.118
-0.117
-0.11
-0.115
-0.105
-0.102
-0.103
-0.103
-0.094
-0.092
-0.083
-0.078
-0.073
-0.071
-0.069
-0.062
-0.059
-0.064
-0.057
-0.049
-0.055
-0.048
-0.047
-0.04
-0.045
-0.044
-0.04
-0.037
-0.036
-0.037
-0.032
-0.025
-0.02
-0.023
-0.014
-0.018
-0.004
-0.009
0.006
0.01
0.034
0.06
0.065
0.083
0.08
0.087
0.108
0.12
0.118
0.11
0.091
0.075
0.064
0.051
0.031
0.015
0.005
-0.005
-0.008
-0.009
-0.025
-0.033
-0.029
-0.035
-0.028
-0.027
-0.024
-0.029
-0.022
-0.028
-0.019
-0.014
-0.012
-0.011
-0.003
0.002
0.001
-0.008
0.016
0.116
0.197
0.363
0.525
0.632
0.74
0.764
0.5
-0.04
-0.548
-1.002
-1.172
-1.114
-0.897
-0.668
-0.377
-0.133
0.035
0.112
0.156
0.182
0.208
0.225
0.239
0.233
0.244
0.256
0.267
0.266
0.264
0.275
0.278
0.282
0.282
0.292
0.295
0.296
0.293
0.292
0.299
0.303
0.303
0.309
0.314
0.319
0.314
0.316
0.326
0.328
0.331
0.328
0.331
0.334
0.34
0.329
0.323
0.319
0.313
0.3
0.285
0.275
0.254
0.231
0.208
0.195
0.169
0.145
0.117
0.096
0.069
0.039
0.005
-0.024
-0.053
-0.074
-0.1
-0.128
-0.14
-0.168
-0.191
-0.206
-0.217
-0.235
-0.245
-0.257
-0.262
-0.266
-0.266
-0.268
-0.269
-0.263
-0.258
-0.255
-0.247
-0.235
-0.229
-0.225
-0.217
-0.209
-0.204
-0.192
-0.189
-0.182
-0.177
-0.171
-0.165
-0.161
-0.155
-0.15
-0.148
-0.141
-0.135
-0.135
-0.129
-0.128
-0.122
-0.119
-0.113
-0.114
-0.114
-0.11
-0.115
-0.11
-0.109
-0.112
-0.115
-0.114
-0.115
-0.109
-0.113
-0.111
-0.114
-0.112
-0.113
-0.101
-0.105
-0.108
-0.1
-0.095
-0.092
-0.092
-0.086
-0.086
-0.085
-0.076
-0.071
-0.071
-0.069
-0.065
-0.061
-0.063
-0.063
-0.059
-0.054
-0.052
-0.047
-0.046
-0.044
-0.042
-0.042
-0.038
-0.038
-0.041
-0.043
-0.035
-0.026
-0.019
-0.005
0.014
0.03
0.039
0.057
0.054
0.069
0.088
0.103
0.1
0.098
0.074
0.055
0.046
0.032
0.011
-0.007
-0.016
-0.019
-0.026
-0.041
-0.04
-0.044
-0.046
-0.047
-0.036
-0.045
-0.039
-0.042
-0.035
-0.038
-0.037
-0.032
-0.03
-0.025
-0.018
-0.009
-0.015
-0.016
0.008
0.125
0.224
0.397
0.56
0.664
0.794
0.777
0.445
-0.088
-0.615
-1.063
-1.162
-1.083
-0.893
-0.707
-0.449
-0.197
-0.001
0.095
0.149
0.178
0.208
0.223
0.23
0.231
0.236
0.246
0.259
0.261
0.261
0.266
0.277
0.275
0.271
0.284
0.285
0.284
0.279
0.292
0.299
0.309
0.305
0.303
0.312
0.321
0.325
0.326
0.333
0.337
0.339
0.336
0.348
0.345
0.339
0.339
0.34
0.337
0.326
0.32
0.302
0.29
0.272
0.255
0.231
0.215
0.194
0.169
0.141
0.118
0.097
0.076
0.042
0.016
-0.01
-0.031
-0.056
-0.077
-0.1
-0.122
-0.146
-0.171
-0.175
-0.187
-0.202
-0.22
-0.223
-0.23
-0.232
-0.238
-0.24
-0.241
-0.233
-0.225
-0.227
-0.219
-0.212
-0.205
-0.203
-0.189
-0.18
-0.178
-0.164
-0.151
-0.149
-0.147
-0.138
-0.133
-0.136
-0.129
-0.124
-0.122
-0.115
-0.111
-0.111
-0.114
-0.102
-0.104
-0.099
-0.102
-0.106
-0.115
-0.111
-0.105
-0.104
-0.106
-0.111
-0.105
-0.107
-0.104
-0.099
-0.102
-0.099
-0.096
-0.1
-0.103
-0.1
-0.097
-0.087
-0.091
-0.083
-0.086
-0.09
-0.086
-0.087
-0.091
-0.083
-0.081
-0.086
-0.074
-0.073
-0.066
-0.048
-0.021
-0.018
0.002
0.011
0.011
0.024
0.048
0.061
0.061
0.046
0.022
-0.001
-0.006
-0.022
-0.044
-0.062
-0.069
-0.066
-0.075
-0.079
-0.082
-0.08
-0.085
-0.079
-0.08
-0.077
-0.081
-0.075
-0.069
-0.065
-0.057
-0.049
-0.043
-0.039
-0.036
-0.038
-0.037
-0.039
-0.001
0.106
0.231
0.386
0.568
0.656
0.784
0.728
0.378
-0.099
-0.629
-1.062
-1.153
-1.098
-0.952
-0.775
-0.55
-0.284
-0.083
0.06
0.131
0.171
0.188
0.208
0.223
0.23
0.239
0.241
0.25
0.255
0.263
0.263
0.275
0.277
0.277
0.281
0.29
0.295
0.291
0.294
0.3
0.308
0.308
0.313
0.313
0.32
0.322
0.322
0.32
0.332
0.335
0.334
0.336
0.335
0.335
0.327
0.326
0.316
0.304
0.29
0.276
0.257
0.242
0.219
0.198
0.175
0.161
0.135
0.113
0.085
0.06
0.037
0.004
-0.017
-0.047
-0.07
-0.094
-0.111
-0.139
-0.153
-0.176
-0.182
-0.201
-0.207
-0.22
-0.225
-0.227
-0.237
-0.244
-0.251
-0.245
-0.243
-0.233
-0.234
-0.233
-0.231
-0.217
-0.213
-0.205
-0.2
-0.191
-0.182
-0.178
-0.164
-0.158
-0.151
-0.139
-0.129
-0.128
-0.122
-0.12
-0.115
-0.11
-0.105
-0.107
-0.104
-0.103
-0.101
-0.104
-0.104
-0.1
-0.099
-0.102
-0.104
-0.104
-0.11
-0.106
-0.112
-0.109
-0.105
-0.103
-0.1
-0.1
-0.099
-0.099
-0.099
-0.095
-0.089
-0.093
-0.092
-0.089
-0.084
-0.09
-0.084
-0.089
-0.087
-0.085
-0.08
-0.084
-0.078
-0.07
-0.058
-0.05
-0.024
0.004
0.018
0.039
0.038
0.042
0.053
0.07
0.073
0.066
0.063
0.037
0.017
0.013
-0.005
-0.028
-0.045
-0.048
-0.049
-0.055
-0.063
-0.07
-0.078
-0.086
-0.079
-0.073
-0.073
-0.073
-0.071
-0.065
-0.067
-0.058
-0.056
-0.053
-0.049
-0.047
-0.046
-0.05
-0.054
-0.01
0.112
0.214
0.386
0.558
0.636
0.757
0.718
0.359
-0.179
-0.712
-1.147
-1.253
-1.18
-0.975
-0.773
-0.511
-0.237
-0.026
0.084
0.144
0.18
0.202
0.219
0.228
0.233
0.251
0.254
0.268
0.265
0.267
0.273
0.281
0.28
0.276
0.283
0.286
0.293
0.292
0.296
0.299
0.309
0.311
0.311
0.309
0.316
0.314
0.319
0.324
0.333
0.326
0.325
0.335
0.337
0.336
0.332
0.328
0.321
0.315
0.299
0.29
0.269
0.251
0.226
0.204
0.186
0.161
0.133
0.111
0.092
0.068
0.038
0.008
-0.017
-0.046
-0.068
-0.097
-0.114
-0.139
-0.157
-0.175
-0.188
-0.198
-0.208
-0.219
-0.228
-0.235
-0.242
-0.237
-0.236
-0.237
-0.238
-0.227
-0.224
-0.21
-0.201
-0.193
-0.193
-0.185
-0.168
-0.157
-0.15
-0.137
-0.128
-0.119
-0.107
-0.107
-0.101
-0.1
-0.092
-0.092
-0.085
-0.082
-0.077
-0.076
-0.074
-0.071
-0.07
-0.066
-0.069
-0.066
-0.068
-0.061
-0.064
-0.065
-0.074
-0.074
-0.074
-0.075
-0.075
-0.078
-0.078
-0.078
-0.074
-0.083
-0.075
-0.075
-0.073
-0.077
-0.073
-0.07
-0.067
-0.066
-0.065
-0.067
-0.064
-0.057
-0.052
-0.05
-0.046
-0.042
-0.041
-0.032
-0.035
-0.033
-0.033
-0.028
-0.034
-0.025
-0.023
-0.028
-0.021
-0.019
-0.015
-0.018
-0.013
-0.012
-0.009
-0.009
-0.005
-0.004
-0.001
-0.005
0.004
-0.001
0.003
0.01
0.022
0.023
0.042
0.067
0.08
0.105
0.116
0.12
0.127
0.147
0.151
0.141
0.131
0.109
0.085
0.077
0.064
0.049
0.03
0.021
0.017
0.005
0.005
-0.002
-0.006
-0.017
-0.018
-0.019
-0.019
-0.021
-0.014
-0.017
-0.018
-0.015
-0.009
-0.003
0.001
0.007
0.002
0.013
0
0.006
0.068
0.192
0.274
0.458
0.599
0.685
0.729
0.666
0.233
-0.292
-0.795
-1.152
-1.235
-1.071
-0.844
-0.58
-0.281
-0.038
0.095
0.162
0.202
0.235
0.249
0.26
0.263
0.268
0.274
0.286
0.282
0.281
0.278
0.288
0.288
0.287
0.293
0.306
0.305
0.304
0.309
0.31
0.317
0.315
0.317
0.311
0.323
0.321
0.321
0.316
0.33
0.33
0.33
0.331
0.336
0.335
0.331
0.329
0.325
0.325
0.315
0.291
0.272
0.266
0.24
0.22
0.2
0.184
0.164
0.136
0.115
0.092
0.068
0.038
0.009
-0.023
-0.041
-0.071
-0.097
-0.127
-0.146
-0.171
-0.194
-0.206
-0.216
-0.234
-0.251
-0.264
-0.27
-0.276
-0.281
-0.282
-0.283
-0.275
-0.273
-0.273
-0.276
-0.263
-0.253
-0.255
-0.241
-0.237
-0.228
-0.227
-0.214
-0.205
-0.194
-0.187
-0.182
-0.179
-0.165
-0.166
-0.16
-0.151
-0.149
-0.156
-0.148
-0.143
-0.143
-0.136
-0.129
-0.123
-0.125
-0.124
-0.122
-0.124
-0.126
-0.12
-0.127
-0.128
-0.123
-0.125
-0.122
-0.119
-0.114
-0.12
-0.111
-0.11
-0.11
-0.112
-0.104
-0.103
-0.106
-0.106
-0.107
-0.101
-0.098
-0.099
-0.096
-0.093
-0.091
-0.088
-0.089
-0.082
-0.07
-0.069
-0.068
-0.062
-0.063
-0.062
-0.056
-0.054
-0.06
-0.06
-0.054
-0.053
-0.056
-0.049
-0.045
-0.051
-0.045
-0.045
-0.037
-0.042
-0.033
-0.038
-0.03
-0.019
-0.015
-0.02
-0.024
-0.017
-0.019
-0.014
-0.01
-0.005
-0.006
-0.007
-0.004
-0.001
0
-0.001
-0.001
-0.001
0.006
0.007
0.008
0.014
0.015
0.015
0.016
0.023
0.022
0.018
0.022
0.019
0.019
0.019
0.025
0.02
0.023
0.028
0.026
0.028
0.039
0.051
0.061
0.08
0.099
0.117
0.126
0.135
0.144
0.158
0.161
0.15
0.138
0.122
0.105
0.099
0.088
0.07
0.048
0.037
0.031
0.026
0.021
0.011
0.006
-0.006
-0.004
0
0.002
0
-0.002
0.011
0.003
0.004
0.007
0.014
0.012
0.014
0.012
0.015
0.01
0.027
0.105
0.195
0.325
0.491
0.611
0.71
0.735
0.587
0.08
-0.408
-0.885
-1.147
-1.16
-0.947
-0.727
-0.436
-0.178
0.01
0.106
0.155
0.186
0.209
0.229
0.24
0.238
0.249
0.257
0.261
0.257
0.263
0.263
0.273
0.272
0.271
0.279
0.282
0.283
0.277
0.283
0.295
0.301
0.291
0.295
0.302
0.301
0.303
0.306
0.307
0.311
0.314
0.315
0.316
0.322
0.328
0.319
0.325
0.323
0.315
0.292
0.282
0.263
0.244
0.229
0.204
0.19
0.17
0.151
0.126
0.107
0.088
0.067
0.031
0.005
-0.023
-0.048
-0.078
-0.105
-0.129
-0.15
-0.18
-0.202
-0.215
-0.236
-0.245
-0.262
-0.266
-0.275
-0.282
-0.291
-0.283
-0.284
-0.283
-0.283
-0.285
-0.276
-0.264
-0.261
-0.254
-0.247
-0.241
-0.231
-0.228
-0.212
-0.203
-0.193
-0.195
-0.187
-0.18
-0.174
-0.169
-0.169
-0.155
-0.152
-0.146
-0.144
-0.143
-0.139
-0.133
-0.134
-0.132
-0.131
-0.133
-0.136
-0.133
-0.136
-0.135
-0.136
-0.139
-0.138
-0.14
-0.14
-0.141
-0.136
-0.14
-0.137
-0.14
-0.14
-0.14
-0.139
-0.137
-0.128
-0.12
-0.122
-0.12
-0.118
-0.11
-0.111
-0.104
-0.102
-0.094
-0.098
-0.088
-0.092
-0.088
-0.087
-0.084
-0.077
-0.075
-0.078
-0.081
-0.07
-0.066
-0.063
-0.06
-0.051
-0.047
-0.041
-0.038
-0.032
-0.03
-0.026
-0.026
-0.02
-0.018
-0.016
-0.019
-0.016
-0.006
-0.006
-0.003
0.002
0.002
0.003
0.01
0.005
0.006
0.007
0.011
0.006
0.007
0.014
0.014
0.017
0.022
0.022
0.022
0.029
0.033
0.034
0.029
0.037
0.034
0.037
0.04
0.046
0.039
0.041
0.043
0.042
0.044
0.046
0.052
0.042
0.047
0.046
0.056
0.06
0.079
0.087
0.097
0.111
0.12
0.117
0.13
0.149
0.154
0.146
0.139
0.124
0.102
0.094
0.072
0.049
0.035
0.03
0.023
0.017
0.008
-0.002
-0.004
-0.011
-0.005
-0.014
-0.013
-0.015
-0.01
-0.013
-0.004
-0.008
-0.005
-0.001
-0.001
-0.003
0.003
0
0.014
0.078
0.192
0.298
0.477
0.615
0.741
0.802
0.657
0.17
-0.311
-0.853
-1.067
-1.083
-0.937
-0.754
-0.548
-0.295
-0.081
0.071
0.142
0.175
0.204
0.22
0.231
0.239
0.246
0.252
0.267
0.27
0.269
0.275
0.283
0.283
0.278
0.285
0.289
0.29
0.281
0.287
0.288
0.296
0.298
0.304
0.304
0.305
0.313
0.313
0.318
0.322
0.329
0.325
0.334
0.33
0.335
0.328
0.331
0.323
0.313
0.304
0.292
0.274
0.262
0.242
0.215
0.201
0.179
0.157
0.126
0.112
0.084
0.058
0.034
0.006
-0.02
-0.044
-0.068
-0.093
-0.12
-0.142
-0.162
-0.192
-0.202
-0.22
-0.228
-0.247
-0.254
-0.262
-0.261
-0.264
-0.264
-0.267
-0.263
-0.254
-0.252
-0.251
-0.245
-0.239
-0.234
-0.229
-0.221
-0.21
-0.206
-0.195
-0.192
-0.182
-0.176
-0.178
-0.178
-0.166
-0.161
-0.156
-0.149
-0.142
-0.136
-0.145
-0.139
-0.14
-0.14
-0.136
-0.136
-0.135
-0.138
-0.134
-0.127
-0.127
-0.132
-0.132
-0.136
-0.127
-0.126
-0.128
-0.129
-0.125
-0.126
-0.123
-0.122
-0.118
-0.121
-0.116
-0.113
-0.12
-0.115
-0.111
-0.106
-0.107
-0.101
-0.094
-0.094
-0.094
-0.094
-0.093
-0.092
-0.087
-0.084
-0.08
-0.081
-0.079
-0.077
-0.068
-0.073
-0.064
-0.065
-0.061
-0.063
-0.057
-0.053
-0.06
-0.059
-0.049
-0.044
-0.041
-0.037
-0.041
-0.039
-0.043
-0.039
-0.035
-0.037
-0.036
-0.027
-0.022
-0.025
-0.014
0.003
0.019
0.034
0.058
0.053
0.062
0.075
0.098
0.109
0.109
0.098
0.082
0.054
0.046
0.031
0.015
-0.005
-0.017
-0.016
-0.018
-0.023
-0.031
-0.032
-0.029
-0.026
-0.027
-0.027
-0.03
-0.027
-0.029
-0.021
-0.025
-0.018
-0.008
-0.006
-0.004
-0.006
-0.011
-0.007
0.047
0.172
0.27
0.451
0.602
0.704
0.812
0.711
0.304
-0.193
-0.757
-1.095
-1.146
-1.057
-0.873
-0.689
-0.439
-0.195
-0.011
0.087
0.147
0.183
0.197
0.215
0.231
0.238
0.242
0.247
0.258
0.254
0.261
0.264
0.272
0.265
0.273
0.276
0.278
0.279
0.279
0.285
0.293
0.302
0.298
0.298
0.304
0.312
0.304
0.313
0.322
0.327
0.326
0.333
0.332
0.337
0.339
0.335
0.333
0.333
0.326
0.31
0.291
0.274
0.26
0.238
0.223
0.202
0.178
0.149
0.127
0.102
0.072
0.047
0.019
-0.011
-0.036
-0.059
-0.09
-0.113
-0.132
-0.15
-0.177
-0.191
-0.215
-0.229
-0.244
-0.246
-0.254
-0.257
-0.259
-0.268
-0.269
-0.267
-0.262
-0.263
-0.254
-0.248
-0.239
-0.237
-0.225
-0.221
-0.211
-0.197
-0.185
-0.18
-0.169
-0.154
-0.153
-0.143
-0.139
-0.127
-0.125
-0.119
-0.12
-0.113
-0.115
-0.111
-0.108
-0.111
-0.108
-0.103
-0.102
-0.105
-0.101
-0.102
-0.099
-0.105
-0.103
-0.109
-0.105
-0.105
-0.096
-0.097
-0.088
-0.091
-0.086
-0.083
-0.082
-0.081
-0.079
-0.073
-0.075
-0.07
-0.068
-0.065
-0.071
-0.064
-0.066
-0.068
-0.066
-0.06
-0.056
-0.052
-0.047
-0.048
-0.048
-0.042
-0.037
-0.038
-0.034
-0.03
-0.027
-0.025
-0.019
-0.018
-0.016
-0.014
-0.004
-0.001
-0.005
-0.001
-0.003
0.004
0.003
0.004
0.003
0.001
0.004
0.003
0.006
0.012
0.017
0.011
0.015
0.012
0.017
0.012
0.018
0.014
0.022
0.026
0.029
0.024
0.025
0.027
0.029
0.032
0.033
0.032
0.032
0.034
0.035
0.045
0.043
0.043
0.039
0.054
0.055
0.068
0.066
0.081
0.097
0.113
0.132
0.14
0.147
0.157
0.168
0.158
0.152
0.143
0.126
0.101
0.092
0.078
0.063
0.047
0.041
0.034
0.029
0.025
0.017
0.01
0.009
0.013
0.012
0.013
0.011
0.009
0.012
0.02
0.021
0.023
0.025
0.029
0.028
0.027
0.023
0.058
0.161
0.251
0.402
0.558
0.67
0.775
0.78
0.526
-0.022
-0.532
-1.01
-1.167
-1.139
-0.938
-0.734
-0.47
-0.213
0.001
0.104
0.165
0.188
0.219
0.233
0.244
0.244
0.255
0.256
0.262
0.271
0.267
0.267
0.268
0.27
0.267
0.277
0.276
0.281
0.274
0.28
0.283
0.287
0.284
0.287
0.295
0.292
0.293
0.293
0.302
0.305
0.313
0.305
0.316
0.312
0.312
0.308
0.306
0.302
0.288
0.281
0.266
0.249
0.232
0.221
0.202
0.181
0.161
0.141
0.115
0.094
0.07
0.048
0.019
-0.01
-0.041
-0.069
-0.09
-0.117
-0.147
-0.168
-0.185
-0.219
-0.23
-0.244
-0.262
-0.28
-0.285
-0.291
-0.297
-0.296
-0.301
-0.297
-0.293
-0.287
-0.294
-0.285
-0.278
-0.263
-0.262
-0.248
-0.243
-0.233
-0.23
-0.225
-0.21
-0.203
-0.201
-0.19
-0.184
-0.178
-0.176
-0.169
-0.166
-0.162
-0.158
-0.166
-0.157
-0.16
-0.16
-0.158
-0.152
-0.147
-0.146
-0.135
-0.135
-0.135
-0.14
-0.138
-0.143
-0.141
-0.141
-0.137
-0.14
-0.136
-0.136
-0.137
-0.134
-0.134
-0.134
-0.136
-0.135
-0.134
-0.131
-0.129
-0.124
-0.127
-0.116
-0.111
-0.106
-0.109
-0.099
-0.099
-0.097
-0.094
-0.092
-0.088
-0.085
-0.079
-0.081
-0.074
-0.075
-0.07
-0.069
-0.06
-0.057
-0.06
-0.057
-0.056
-0.056
-0.055
-0.047
-0.045
-0.043
-0.039
-0.037
-0.04
-0.031
-0.034
-0.029
-0.026
-0.023
-0.023
-0.018
-0.014
-0.01
-0.008
-0.006
-0.002
0.002
0.002
0.001
0.007
0.01
0.008
0.005
0.01
0.012
0.017
0.018
0.023
0.026
0.028
0.028
0.036
0.046
0.052
0.055
0.069
0.09
0.092
0.119
0.118
0.122
0.139
0.136
0.127
0.126
0.118
0.097
0.09
0.066
0.061
0.04
0.035
0.031
0.024
0.009
0.006
-0.007
-0.009
-0.012
-0.008
-0.005
-0.014
-0.01
-0.013
-0.004
-0.001
0.004
0.006
0.011
0.007
0.005
-0.007
0.007
0.062
0.178
0.267
0.453
0.595
0.692
0.756
0.69
0.266
-0.253
-0.758
-1.09
-1.168
-1.014
-0.808
-0.561
-0.284
-0.058
0.077
0.148
0.181
0.209
0.232
0.241
0.247
0.251
0.26
0.274
0.273
0.271
0.277
0.282
0.278
0.279
0.279
0.285
0.291
0.282
0.288
0.296
0.308
0.3
0.305
0.309
0.32
0.319
0.324
0.324
0.333
0.335
0.34
0.337
0.346
0.351
0.343
0.345
0.347
0.34
0.324
0.309
0.291
0.283
0.264
0.245
0.228
0.216
0.19
0.161
0.138
0.113
0.091
0.052
0.028
-0.002
-0.028
-0.065
-0.089
-0.119
-0.142
-0.169
-0.189
-0.213
-0.226
-0.238
-0.251
-0.257
-0.265
-0.265
-0.277
-0.28
-0.275
-0.279
-0.276
-0.272
-0.264
-0.254
-0.251
-0.246
-0.241
-0.233
-0.218
-0.217
-0.207
-0.199
-0.187
-0.191
-0.187
-0.184
-0.175
-0.169
-0.165
-0.159
-0.155
-0.149
-0.14
-0.144
-0.138
-0.131
-0.13
-0.121
-0.117
-0.122
-0.126
-0.12
-0.126
-0.123
-0.124
-0.121
-0.127
-0.128
-0.125
-0.123
-0.118
-0.115
-0.111
-0.116
-0.105
-0.104
-0.105
-0.104
-0.1
-0.101
-0.098
-0.092
-0.093
-0.096
-0.099
-0.093
-0.09
-0.085
-0.086
-0.073
-0.082
-0.078
-0.084
-0.077
-0.072
-0.066
-0.069
-0.065
-0.064
-0.059
-0.059
-0.057
-0.057
-0.056
-0.045
-0.043
-0.042
-0.048
-0.036
-0.035
-0.033
-0.026
-0.023
-0.021
-0.02
-0.017
-0.022
-0.016
-0.013
-0.003
-0.006
0.001
-0.004
0.004
0.003
0.014
0.008
0.01
0.021
0.026
0.024
0.025
0.03
0.03
0.031
0.035
0.041
0.036
0.046
0.042
0.055
0.06
0.069
0.089
0.101
0.127
0.132
0.135
0.148
0.165
0.153
0.154
0.142
0.115
0.099
0.086
0.07
0.052
0.042
0.04
0.032
0.026
0.022
0.011
0.008
0.002
0.002
-0.006
0.003
0.003
0.003
0.005
0.013
0.014
0.014
0.021
0.023
0.019
0.015
0.024
0.072
0.186
0.262
0.442
0.581
0.7
0.803
0.743
0.34
-0.171
-0.687
-1.043
-1.106
-0.991
-0.799
-0.602
-0.337
-0.108
0.059
0.135
0.173
0.192
0.216
0.225
0.232
0.237
0.248
0.257
0.252
0.262
0.264
0.267
0.261
0.255
0.255
0.268
0.269
0.275
0.268
0.277
0.282
0.282
0.285
0.288
0.294
0.301
0.303
0.302
0.312
0.315
0.319
0.316
0.323
0.324
0.324
0.315
0.312
0.306
0.293
0.282
0.272
0.258
0.247
0.225
0.206
0.191
0.172
0.152
0.128
0.11
0.084
0.05
0.02
-0.004
-0.033
-0.064
-0.091
-0.121
-0.146
-0.17
-0.19
-0.216
-0.227
-0.238
-0.253
-0.269
-0.277
-0.288
-0.296
-0.299
-0.302
-0.296
-0.294
-0.288
-0.292
-0.28
-0.274
-0.269
-0.268
-0.248
-0.25
-0.246
-0.238
-0.226
-0.219
-0.215
-0.204
-0.195
-0.184
-0.176
-0.173
-0.175
-0.165
-0.156
-0.145
-0.144
-0.135
-0.134
-0.135
-0.128
-0.125
-0.124
-0.121
-0.119
-0.123
-0.125
-0.126
-0.122
-0.125
-0.118
-0.118
-0.111
-0.113
-0.116
-0.118
-0.114
-0.109
-0.105
-0.105
-0.105
-0.103
-0.095
-0.085
-0.081
-0.081
-0.084
-0.072
-0.075
-0.07
-0.073
-0.061
-0.066
-0.06
-0.054
-0.055
-0.049
-0.05
-0.047
-0.048
-0.038
-0.039
-0.044
-0.049
-0.044
-0.043
-0.037
-0.036
-0.03
-0.032
-0.028
-0.029
-0.03
-0.023
-0.013
-0.006
-0.01
0.014
0.033
0.044
0.05
0.065
0.064
0.085
0.11
0.117
0.112
0.105
0.086
0.065
0.061
0.044
0.022
-0.003
-0.002
-0.007
-0.008
-0.014
-0.019
-0.023
-0.021
-0.022
-0.018
-0.022
-0.021
-0.017
-0.016
-0.012
-0.007
0.001
-0.001
0.001
-0.001
0.008
0.002
0.025
0.106
0.23
0.369
0.559
0.665
0.794
0.819
0.582
0.098
-0.41
-0.939
-1.103
-1.08
-0.967
-0.782
-0.588
-0.329
-0.123
0.048
0.144
0.179
0.204
0.222
0.237
0.242
0.254
0.259
0.266
0.269
0.267
0.266
0.27
0.274
0.272
0.272
0.275
0.283
0.28
0.28
0.283
0.286
0.285
0.29
0.29
0.301
0.299
0.301
0.303
0.314
0.322
0.323
0.326
0.33
0.336
0.328
0.325
0.325
0.326
0.315
0.303
0.286
0.273
0.26
0.239
0.219
0.198
0.18
0.149
0.124
0.1
0.075
0.04
0.01
-0.019
-0.045
-0.073
-0.099
-0.129
-0.152
-0.17
-0.192
-0.205
-0.215
-0.227
-0.249
-0.251
-0.251
-0.253
-0.264
-0.261
-0.261
-0.257
-0.254
-0.252
-0.248
-0.241
-0.237
-0.233
-0.221
-0.213
-0.212
-0.208
-0.197
-0.187
-0.175
-0.176
-0.167
-0.169
-0.158
-0.148
-0.145
-0.133
-0.133
-0.127
-0.126
-0.12
-0.115
-0.111
-0.112
-0.112
-0.114
-0.105
-0.097
-0.099
-0.109
-0.11
-0.103
-0.099
-0.103
-0.104
-0.094
-0.101
-0.096
-0.101
-0.099
-0.101
-0.093
-0.095
-0.094
-0.087
-0.089
-0.087
-0.08
-0.074
-0.074
-0.075
-0.069
-0.064
-0.064
-0.059
-0.063
-0.063
-0.062
-0.049
-0.042
-0.038
-0.019
0.007
0.027
0.046
0.046
0.046
0.065
0.089
0.101
0.088
0.084
0.053
0.039
0.038
0.016
-0.009
-0.025
-0.028
-0.03
-0.035
-0.04
-0.042
-0.05
-0.044
-0.042
-0.038
-0.044
-0.036
-0.044
-0.039
-0.035
-0.026
-0.027
-0.02
-0.011
-0.007
-0.004
-0.011
-0.01
0.039
0.17
0.255
0.447
0.598
0.702
0.829
0.727
0.311
-0.207
-0.761
-1.124
-1.172
-1.082
-0.89
-0.7
-0.427
-0.183
0.016
0.112
0.167
0.196
0.221
0.229
0.236
0.243
0.246
0.25
0.254
0.258
0.258
0.262
0.265
0.263
0.264
0.275
0.283
0.282
0.283
0.291
0.298
0.3
0.304
0.304
0.314
0.322
0.326
0.327
0.338
0.345
0.353
0.354
0.363
0.368
0.364
0.363
0.36
0.354
0.344
0.328
0.309
0.3
0.28
0.261
0.236
0.219
0.193
0.171
0.14
0.12
0.089
0.057
0.027
-0.004
-0.032
-0.06
-0.078
-0.116
-0.133
-0.154
-0.179
-0.201
-0.211
-0.224
-0.236
-0.242
-0.25
-0.254
-0.258
-0.262
-0.261
-0.253
-0.258
-0.252
-0.252
-0.244
-0.247
-0.239
-0.236
-0.228
-0.224
-0.219
-0.207
-0.2
-0.193
-0.182
-0.176
-0.172
-0.164
-0.154
-0.147
-0.144
-0.131
-0.131
-0.127
-0.122
-0.116
-0.115
-0.116
-0.113
-0.111
-0.114
-0.111
-0.108
-0.11
-0.108
-0.109
-0.111
-0.118
-0.111
-0.108
-0.11
-0.109
-0.105
-0.104
-0.109
-0.104
-0.104
-0.105
-0.102
-0.102
-0.112
-0.101
-0.095
-0.097
-0.099
-0.093
-0.092
-0.091
-0.079
-0.077
-0.073
-0.072
-0.062
-0.062
-0.062
-0.057
-0.053
-0.053
-0.045
-0.046
-0.039
-0.036
-0.036
-0.038
-0.038
-0.03
-0.025
-0.016
-0.011
-0.002
0
0.026
0.048
0.067
0.08
0.083
0.085
0.1
0.118
0.118
0.108
0.096
0.074
0.06
0.057
0.035
0.017
-0.004
-0.005
-0.008
-0.014
-0.03
-0.029
-0.032
-0.027
-0.029
-0.033
-0.027
-0.029
-0.026
-0.025
-0.023
-0.023
-0.017
-0.017
-0.01
-0.013
-0.01
-0.017
-0.01
0.037
0.16
0.242
0.435
0.576
0.67
0.749
0.703
0.316
-0.218
-0.74
-1.117
-1.218
-1.097
-0.871
-0.633
-0.346
-0.106
0.048
0.131
0.171
0.202
0.226
0.242
0.243
0.25
0.258
0.266
0.268
0.267
0.269
0.275
0.281
0.281
0.276
0.282
0.293
0.287
0.294
0.298
0.303
0.299
0.305
0.312
0.319
0.326
0.334
0.335
0.341
0.347
0.346
0.346
0.353
0.359
0.356
0.359
0.351
0.345
0.33
0.32
0.298
0.288
0.268
0.25
0.229
0.21
0.194
0.167
0.142
0.118
0.09
0.05
0.019
-0.008
-0.038
-0.073
-0.103
-0.132
-0.151
-0.17
-0.194
-0.215
-0.226
-0.233
-0.253
-0.261
-0.269
-0.266
-0.275
-0.274
-0.278
-0.281
-0.281
-0.279
-0.274
-0.266
-0.258
-0.251
-0.247
-0.238
-0.229
-0.227
-0.219
-0.21
-0.196
-0.187
-0.178
-0.174
-0.166
-0.161
-0.152
-0.147
-0.145
-0.141
-0.138
-0.133
-0.132
-0.12
-0.124
-0.112
-0.116
-0.116
-0.115
-0.112
-0.114
-0.111
-0.107
-0.112
-0.115
-0.115
-0.114
-0.114
-0.118
-0.113
-0.113
-0.118
-0.109
-0.106
-0.102
-0.101
-0.101
-0.093
-0.095
-0.09
-0.089
-0.086
-0.087
-0.078
-0.082
-0.079
-0.079
-0.069
-0.072
-0.067
-0.068
-0.064
-0.063
-0.053
-0.053
-0.047
-0.039
-0.047
-0.044
-0.041
-0.031
-0.028
-0.029
-0.029
-0.025
-0.021
-0.019
-0.019
-0.014
-0.012
-0.008
-0.006
-0.008
-0.004
-0.002
-0.006
-0.005
-0.002
-0.002
0.004
0.005
0.005
0.009
0.008
0.015
0.018
0.026
0.044
0.061
0.027
0.088
0.098
0.103
0.127
0.14
0.135
0.137
0.125
0.096
0.079
0.066
0.049
0.025
0.019
0.013
0.017
0.004
0
-0.009
-0.01
-0.011
-0.009
-0.013
-0.009
-0.007
-0.004
-0.001
0.002
0.004
0.01
0.015
0.015
0.017
0.027
0.028
0.014
0.039
0.104
0.205
0.318
0.489
0.607
0.718
0.776
0.643
0.138
-0.363
-0.857
-1.121
-1.139
-0.945
-0.742
-0.48
-0.211
-0.001
0.103
0.151
0.183
0.208
0.233
0.243
0.25
0.254
0.262
0.269
0.259
0.266
0.269
0.27
0.267
0.269
0.276
0.28
0.289
0.286
0.291
0.298
0.307
0.303
0.306
0.317
0.322
0.312
0.32
0.321
0.333
0.329
0.33
0.333
0.339
0.341
0.338
0.338
0.332
0.324
0.312
0.305
0.298
0.282
0.252
0.231
0.206
0.189
0.161
0.136
0.103
0.077
0.053
0.023
-0.007
-0.035
-0.063
-0.097
-0.118
-0.145
-0.17
-0.2
-0.215
-0.23
-0.244
-0.262
-0.276
-0.286
-0.29
-0.289
-0.301
-0.295
-0.295
-0.296
-0.294
-0.288
-0.275
-0.265
-0.262
-0.257
-0.252
-0.244
-0.23
-0.222
-0.216
-0.207
-0.199
-0.204
-0.192
-0.189
-0.177
-0.178
-0.167
-0.166
-0.164
-0.157
-0.156
-0.152
-0.153
-0.142
-0.142
-0.136
-0.136
-0.133
-0.139
-0.134
-0.132
-0.128
-0.128
-0.129
-0.132
-0.135
-0.14
-0.134
-0.13
-0.128
-0.122
-0.117
-0.118
-0.111
-0.107
-0.106
-0.097
-0.101
-0.097
-0.098
-0.09
-0.093
-0.091
-0.081
-0.076
-0.072
-0.072
-0.063
-0.066
-0.058
-0.056
-0.051
-0.051
-0.049
-0.051
-0.044
-0.04
-0.037
-0.038
-0.031
-0.025
-0.017
-0.018
-0.016
-0.009
-0.013
-0.008
-0.009
0.002
0.006
0.012
0.01
0.013
0.018
0.025
0.032
0.03
0.038
0.04
0.044
0.042
0.039
0.042
0.044
0.048
0.049
0.045
0.051
0.054
0.059
0.066
0.074
0.066
0.071
0.098
0.115
0.128
0.136
0.141
0.143
0.165
0.175
0.176
0.169
0.157
0.128
0.122
0.111
0.092
0.07
0.057
0.056
0.037
0.044
0.036
0.029
0.022
0.025
0.017
0.019
0.017
0.019
0.021
0.023
0.028
0.032
0.04
0.041
0.045
0.041
0.047
0.04
0.035
0.075
0.194
0.273
0.446
0.603
0.707
0.823
0.805
0.474
-0.052
-0.567
-0.984
-1.079
-1.006
-0.817
-0.643
-0.397
-0.152
0.037
0.132
0.175
0.204
0.22
0.235
0.239
0.24
0.241
0.254
0.26
0.256
0.258
0.265
0.268
0.267
0.267
0.277
0.284
0.287
0.28
0.284
0.295
0.299
0.3
0.296
0.313
0.314
0.318
0.315
0.318
0.324
0.32
0.325
0.326
0.334
0.335
0.332
0.325
0.321
0.317
0.305
0.285
0.276
0.259
0.237
0.225
0.209
0.188
0.161
0.138
0.113
0.085
0.06
0.029
-0.006
-0.029
-0.058
-0.089
-0.12
-0.143
-0.172
-0.192
-0.205
-0.218
-0.231
-0.25
-0.258
-0.264
-0.279
-0.28
-0.277
-0.284
-0.278
-0.284
-0.288
-0.289
-0.277
-0.269
-0.264
-0.256
-0.247
-0.236
-0.229
-0.223
-0.215
-0.199
-0.19
-0.193
-0.19
-0.177
-0.17
-0.16
-0.16
-0.154
-0.145
-0.144
-0.145
-0.139
-0.137
-0.135
-0.134
-0.138
-0.129
-0.132
-0.133
-0.129
-0.129
-0.132
-0.132
-0.135
-0.136
-0.133
-0.132
-0.128
-0.129
-0.13
-0.134
-0.128
-0.125
-0.13
-0.134
-0.125
-0.128
-0.121
-0.122
-0.121
-0.117
-0.117
-0.116
-0.115
-0.109
-0.105
-0.105
-0.099
-0.095
-0.097
-0.096
-0.098
-0.096
-0.093
-0.084
-0.088
-0.082
-0.081
-0.075
-0.075
-0.076
-0.075
-0.075
-0.071
-0.066
-0.063
-0.067
-0.062
-0.069
-0.064
-0.063
-0.057
-0.052
-0.054
-0.052
-0.054
-0.051
-0.049
-0.047
-0.05
-0.042
-0.041
-0.039
-0.039
-0.033
-0.036
-0.027
-0.021
-0.02
-0.015
-0.016
-0.01
-0.01
-0.001
0.004
0.02
0.031
0.049
0.062
0.078
0.079
0.094
0.11
0.121
0.115
0.104
0.079
0.054
0.059
0.029
0.013
-0.011
-0.012
-0.017
-0.022
-0.032
-0.037
-0.043
-0.038
-0.039
-0.036
-0.034
-0.041
-0.042
-0.037
-0.031
-0.032
-0.024
-0.013
-0.005
-0.009
-0.002
0.001
-0.011
0.016
0.107
0.219
0.36
0.54
0.645
0.766
0.781
0.555
0.045
-0.445
-0.955
-1.104
-1.09
-0.946
-0.761
-0.562
-0.303
-0.097
0.061
0.136
0.181
0.199
0.223
0.235
0.245
0.24
0.263
0.272
0.273
0.269
0.274
0.276
0.281
0.282
0.286
0.286
0.292
0.293
0.287
0.301
0.308
0.304
0.3
0.304
0.308
0.312
0.312
0.32
0.329
0.33
0.333
0.334
0.346
0.35
0.349
0.346
0.345
0.336
0.319
0.305
0.293
0.279
0.256
0.236
0.215
0.195
0.179
0.152
0.126
0.098
0.071
0.043
0.008
-0.016
-0.047
-0.078
-0.109
-0.133
-0.159
-0.177
-0.193
-0.211
-0.223
-0.234
-0.244
-0.253
-0.255
-0.257
-0.258
-0.265
-0.266
-0.264
-0.261
-0.261
-0.253
-0.242
-0.246
-0.24
-0.234
-0.225
-0.217
-0.212
-0.206
-0.198
-0.188
-0.178
-0.175
-0.167
-0.166
-0.164
-0.154
-0.153
-0.146
-0.142
-0.134
-0.134
-0.128
-0.127
-0.122
-0.126
-0.122
-0.124
-0.129
-0.124
-0.116
-0.113
-0.114
-0.109
-0.111
-0.109
-0.106
-0.109
-0.11
-0.102
-0.106
-0.108
-0.115
-0.11
-0.118
-0.115
-0.111
-0.108
-0.101
-0.101
-0.099
-0.099
-0.095
-0.09
-0.087
-0.088
-0.079
-0.078
-0.075
-0.078
-0.075
-0.076
-0.076
-0.07
-0.064
-0.064
-0.061
-0.053
-0.058
-0.05
-0.049
-0.05
-0.06
-0.052
-0.053
-0.051
-0.048
-0.042
-0.041
-0.044
-0.034
-0.032
-0.031
-0.02
-0.018
-0.022
-0.018
-0.016
-0.01
-0.007
-0.001
-0.005
-0.004
0
0.002
0.001
0.006
0.013
0.018
0.023
0.025
0.027
0.028
0.033
0.035
0.035
0.044
0.054
0.062
0.08
0.1
0.118
0.129
0.131
0.148
0.163
0.172
0.173
0.167
0.138
0.117
0.109
0.089
0.072
0.052
0.04
0.036
0.028
0.015
0.011
0.012
0.014
0.011
0.013
0.013
0.017
0.011
0.015
0.015
0.019
0.026
0.036
0.037
0.035
0.042
0.038
0.027
0.049
0.135
0.244
0.368
0.54
0.667
0.777
0.813
0.651
0.123
-0.379
-0.879
-1.143
-1.167
-0.964
-0.761
-0.507
-0.236
-0.01
0.11
0.175
0.21
0.237
0.251
0.263
0.262
0.272
0.284
0.285
0.283
0.282
0.292
0.295
0.293
0.293
0.302
0.306
0.314
0.309
0.315
0.322
0.327
0.325
0.331
0.341
0.343
0.344
0.343
0.35
0.343
0.353
0.354
0.362
0.359
0.361
0.353
0.356
0.356
0.348
0.338
0.326
0.313
0.299
0.275
0.255
0.239
0.215
0.192
0.17
0.143
0.115
0.085
0.043
0.007
-0.017
-0.047
-0.086
-0.116
-0.14
-0.167
-0.186
-0.212
-0.231
-0.251
-0.254
-0.268
-0.275
-0.275
-0.28
-0.287
-0.292
-0.293
-0.296
-0.296
-0.296
-0.286
-0.285
-0.274
-0.275
-0.265
-0.259
-0.253
-0.251
-0.246
-0.236
-0.229
-0.219
-0.214
-0.201
-0.197
-0.189
-0.188
-0.181
-0.177
-0.168
-0.165
-0.166
-0.168
-0.156
-0.154
-0.156
-0.153
-0.151
-0.147
-0.143
-0.138
-0.137
-0.129
-0.127
-0.123
-0.13
-0.12
-0.12
-0.124
-0.12
-0.121
-0.118
-0.115
-0.105
-0.105
-0.105
-0.1
-0.101
-0.099
-0.098
-0.096
-0.09
-0.09
-0.082
-0.082
-0.075
-0.074
-0.072
-0.072
-0.067
-0.056
-0.057
-0.05
-0.049
-0.042
-0.042
-0.03
-0.034
-0.031
-0.028
-0.024
-0.024
-0.026
-0.026
-0.026
-0.019
-0.018
-0.013
-0.015
-0.015
-0.01
0
-0.002
0.005
0.003
0.009
0.013
0.017
0.013
0.018
0.025
0.021
0.023
0.025
0.031
0.029
0.037
0.035
0.034
0.033
0.035
0.037
0.036
0.037
0.037
0.039
0.04
0.046
0.048
0.058
0.057
0.061
0.058
0.06
0.057
0.056
0.056
0.059
0.057
0.055
0.058
0.06
0.058
0.061
0.062
0.062
0.065
0.064
0.064
0.059
0.073
0.07
0.077
0.073
0.087
0.107
0.114
0.133
0.134
0.134
0.153
0.152
0.14
0.134
0.12
0.101
0.089
0.08
0.057
0.038
0.036
0.031
0.021
0.016
0.006
-0.005
-0.008
-0.01
-0.011
-0.018
-0.012
-0.011
-0.017
-0.015
-0.008
-0.008
-0.005
0
0.002
0.005
0
-0.007
0.017
0.114
0.197
0.355
0.503
0.625
0.716
0.734
0.515
-0.022
-0.515
-0.963
-1.141
-1.112
-0.895
-0.676
-0.404
-0.166
0.02
0.106
0.148
0.169
0.193
0.209
0.216
0.219
0.229
0.241
0.239
0.237
0.237
0.247
0.255
0.253
0.254
0.262
0.266
0.263
0.263
0.268
0.275
0.271
0.275
0.283
0.289
0.297
0.3
0.299
0.319
0.323
0.328
0.32
0.331
0.333
0.333
0.332
0.334
0.33
0.326
0.316
0.304
0.298
0.275
0.258
0.236
0.215
0.201
0.181
0.151
0.127
0.104
0.076
0.042
0.013
-0.019
-0.058
-0.084
-0.112
-0.14
-0.166
-0.193
-0.225
-0.242
-0.26
-0.274
-0.29
-0.291
-0.303
-0.308
-0.312
-0.317
-0.319
-0.321
-0.319
-0.317
-0.305
-0.302
-0.299
-0.297
-0.29
-0.287
-0.278
-0.275
-0.26
-0.256
-0.25
-0.238
-0.233
-0.224
-0.216
-0.21
-0.206
-0.191
-0.19
-0.185
-0.185
-0.177
-0.174
-0.172
-0.167
-0.159
-0.163
-0.16
-0.16
-0.158
-0.15
-0.148
-0.147
-0.153
-0.146
-0.147
-0.147
-0.15
-0.147
-0.147
-0.146
-0.143
-0.139
-0.141
-0.137
-0.132
-0.136
-0.13
-0.13
-0.127
-0.131
-0.125
-0.127
-0.12
-0.114
-0.121
-0.116
-0.116
-0.106
-0.099
-0.094
-0.095
-0.091
-0.094
-0.081
-0.086
-0.075
-0.076
-0.066
-0.064
-0.059
-0.057
-0.058
-0.051
-0.05
-0.045
-0.042
-0.041
-0.037
-0.036
-0.038
-0.032
-0.03
-0.028
-0.037
-0.034
-0.038
-0.032
-0.022
-0.023
-0.021
-0.015
-0.006
-0.011
-0.014
-0.006
0
-0.002
0.004
0
0.003
-0.001
0.009
0.008
0.013
0.016
0.011
0.017
0.019
0.026
0.025
0.033
0.037
0.045
0.043
0.06
0.054
0.071
0.091
0.103
0.111
0.118
0.129
0.139
0.143
0.138
0.138
0.122
0.103
0.092
0.086
0.066
0.051
0.035
0.028
0.028
0.02
0.015
0.008
0.005
0.002
0.002
0
0
0
0.008
0.01
0.006
0.014
0.016
0.021
0.021
0.02
0.02
0.013
0.052
0.151
0.22
0.398
0.554
0.661
0.759
0.766
0.483
-0.058
-0.566
-0.99
-1.125
-1.058
-0.85
-0.647
-0.38
-0.132
0.048
0.127
0.172
0.194
0.215
0.228
0.237
0.237
0.251
0.264
0.262
0.263
0.268
0.274
0.282
0.281
0.276
0.285
0.291
0.299
0.297
0.301
0.311
0.311
0.301
0.302
0.315
0.323
0.318
0.321
0.327
0.324
0.327
0.331
0.34
0.342
0.344
0.341
0.342
0.344
0.34
0.328
0.316
0.31
0.29
0.265
0.25
0.24
0.219
0.198
0.172
0.148
0.118
0.093
0.049
0.025
-0.005
-0.037
-0.073
-0.106
-0.129
-0.159
-0.187
-0.209
-0.226
-0.242
-0.252
-0.274
-0.279
-0.285
-0.288
-0.303
-0.298
-0.299
-0.295
-0.293
-0.291
-0.28
-0.28
-0.274
-0.264
-0.254
-0.246
-0.241
-0.234
-0.228
-0.217
-0.203
-0.197
-0.192
-0.178
-0.176
-0.177
-0.174
-0.16
-0.16
-0.15
-0.146
-0.142
-0.145
-0.136
-0.137
-0.132
-0.127
-0.128
-0.133
-0.129
-0.118
-0.12
-0.12
-0.119
-0.116
-0.12
-0.118
-0.115
-0.115
-0.117
-0.112
-0.113
-0.11
-0.103
-0.1
-0.103
-0.101
-0.096
-0.093
-0.091
-0.088
-0.081
-0.081
-0.074
-0.073
-0.069
-0.063
-0.064
-0.061
-0.058
-0.056
-0.05
-0.048
-0.047
-0.045
-0.044
-0.038
-0.037
-0.034
-0.034
-0.027
-0.029
-0.028
-0.026
-0.023
-0.019
-0.019
-0.014
-0.016
-0.011
-0.012
-0.011
-0.007
0.004
0.004
0.008
0.005
0.016
0.024
0.038
0.057
0.067
0.085
0.082
0.1
0.124
0.132
0.136
0.127
0.115
0.091
0.083
0.077
0.051
0.035
0.02
0.011
0.011
0.008
-0.006
-0.007
-0.01
-0.014
-0.004
-0.001
-0.006
-0.015
-0.004
-0.007
-0.008
-0.01
0.001
0.001
0.001
0.005
0.003
0.005
0.04
0.15
0.241
0.421
0.591
0.699
0.831
0.782
0.451
-0.042
-0.577
-0.995
-1.078
-1.031
-0.869
-0.701
-0.476
-0.234
-0.038
0.088
0.154
0.178
0.199
0.213
0.23
0.232
0.236
0.25
0.257
0.253
0.262
0.269
0.265
0.271
0.273
0.271
0.276
0.284
0.278
0.281
0.287
0.296
0.293
0.298
0.306
0.31
0.315
0.311
0.319
0.326
0.334
0.335
0.333
0.334
0.346
0.344
0.344
0.342
0.341
0.327
0.313
0.303
0.287
0.271
0.247
0.225
0.2
0.186
0.162
0.135
0.101
0.066
0.037
0.007
-0.026
-0.057
-0.09
-0.121
-0.142
-0.168
-0.192
-0.217
-0.23
-0.248
-0.26
-0.281
-0.287
-0.288
-0.291
-0.293
-0.291
-0.294
-0.292
-0.287
-0.283
-0.277
-0.27
-0.264
-0.259
-0.251
-0.245
-0.231
-0.227
-0.218
-0.208
-0.2
-0.194
-0.191
-0.18
-0.174
-0.165
-0.168
-0.158
-0.156
-0.145
-0.143
-0.139
-0.135
-0.13
-0.128
-0.129
-0.125
-0.118
-0.123
-0.121
-0.121
-0.122
-0.108
-0.11
-0.111
-0.117
-0.114
-0.117
-0.107
-0.11
-0.1
-0.111
-0.103
-0.102
-0.092
-0.089
-0.088
-0.089
-0.086
-0.082
-0.082
-0.077
-0.078
-0.071
-0.064
-0.056
-0.059
-0.051
-0.053
-0.05
-0.044
-0.042
-0.035
-0.029
-0.017
-0.018
0.003
0.027
0.045
0.054
0.059
0.064
0.084
0.105
0.114
0.105
0.098
0.077
0.056
0.054
0.038
0.02
-0.003
-0.001
-0.006
-0.017
-0.032
-0.035
-0.039
-0.037
-0.029
-0.03
-0.035
-0.03
-0.024
-0.025
-0.02
-0.016
-0.015
-0.011
-0.007
-0.009
-0.004
-0.016
-0.01
0.039
0.16
0.258
0.448
0.609
0.713
0.838
0.718
0.301
-0.189
-0.745
-1.095
-1.149
-1.067
-0.886
-0.704
-0.463
-0.215
-0.023
0.084
0.137
0.174
0.19
0.205
0.206
0.221
0.22
0.235
0.24
0.245
0.245
0.251
0.254
0.258
0.264
0.268
0.275
0.276
0.279
0.282
0.29
0.287
0.289
0.288
0.292
0.298
0.299
0.3
0.313
0.32
0.321
0.327
0.336
0.345
0.332
0.331
0.326
0.325
0.316
0.304
0.289
0.276
0.257
0.243
0.218
0.2
0.181
0.155
0.132
0.103
0.074
0.041
0.012
-0.023
-0.052
-0.083
-0.108
-0.138
-0.162
-0.183
-0.206
-0.227
-0.236
-0.242
-0.257
-0.262
-0.263
-0.265
-0.268
-0.263
-0.265
-0.256
-0.249
-0.245
-0.247
-0.239
-0.231
-0.226
-0.222
-0.216
-0.207
-0.203
-0.191
-0.181
-0.173
-0.17
-0.161
-0.157
-0.142
-0.133
-0.136
-0.132
-0.128
-0.115
-0.112
-0.109
-0.105
-0.1
-0.103
-0.092
-0.089
-0.085
-0.088
-0.086
-0.081
-0.084
-0.081
-0.082
-0.087
-0.086
-0.081
-0.079
-0.08
-0.079
-0.078
-0.078
-0.073
-0.076
-0.071
-0.072
-0.071
-0.069
-0.067
-0.06
-0.063
-0.063
-0.062
-0.056
-0.056
-0.053
-0.051
-0.05
-0.046
-0.041
-0.033
-0.023
-0.015
0.014
0.033
0.049
0.053
0.056
0.068
0.09
0.096
0.093
0.09
0.062
0.044
0.035
0.021
0.002
-0.018
-0.023
-0.033
-0.038
-0.043
-0.046
-0.058
-0.056
-0.06
-0.057
-0.065
-0.057
-0.056
-0.052
-0.048
-0.047
-0.037
-0.042
-0.027
-0.028
-0.023
-0.019
-0.025
0.003
0.1
0.209
0.354
0.527
0.635
0.756
0.787
0.544
0.005
-0.515
-1.015
-1.185
-1.161
-0.956
-0.75
-0.479
-0.214
0.006
0.116
0.169
0.2
0.225
0.239
0.249
0.253
0.263
0.268
0.27
0.274
0.275
0.28
0.291
0.295
0.291
0.297
0.301
0.301
0.299
0.31
0.312
0.318
0.324
0.323
0.332
0.342
0.348
0.347
0.359
0.365
0.365
0.366
0.378
0.381
0.377
0.374
0.374
0.369
0.366
0.355
0.349
0.332
0.32
0.299
0.268
0.255
0.234
0.209
0.17
0.147
0.116
0.082
0.049
0.016
-0.015
-0.046
-0.074
-0.104
-0.13
-0.153
-0.175
-0.201
-0.211
-0.224
-0.237
-0.251
-0.255
-0.265
-0.271
-0.273
-0.279
-0.277
-0.274
-0.264
-0.264
-0.258
-0.256
-0.25
-0.25
-0.238
-0.229
-0.221
-0.214
-0.203
-0.195
-0.191
-0.18
-0.175
-0.163
-0.158
-0.158
-0.157
-0.142
-0.138
-0.133
-0.131
-0.121
-0.127
-0.119
-0.112
-0.119
-0.116
-0.125
-0.123
-0.122
-0.116
-0.12
-0.115
-0.123
-0.123
-0.12
-0.121
-0.122
-0.12
-0.113
-0.114
-0.11
-0.113
-0.112
-0.108
-0.101
-0.104
-0.103
-0.102
-0.104
-0.104
-0.101
-0.097
-0.091
-0.092
-0.087
-0.086
-0.084
-0.08
-0.08
-0.073
-0.073
-0.07
-0.076
-0.068
-0.069
-0.061
-0.054
-0.038
-0.01
0.012
0.029
0.034
0.037
0.044
0.067
0.066
0.076
0.068
0.045
0.023
0.024
0.006
-0.013
-0.029
-0.038
-0.048
-0.051
-0.054
-0.06
-0.069
-0.072
-0.065
-0.065
-0.06
-0.059
-0.05
-0.05
-0.043
-0.049
-0.039
-0.03
-0.026
-0.037
-0.035
-0.025
-0.034
-0.025
0.039
0.155
0.235
0.427
0.565
0.679
0.756
0.69
0.223
-0.29
-0.815
-1.134
-1.193
-1.019
-0.817
-0.559
-0.277
-0.054
0.073
0.124
0.162
0.18
0.197
0.212
0.215
0.216
0.223
0.233
0.236
0.235
0.238
0.257
0.252
0.253
0.257
0.265
0.267
0.271
0.267
0.276
0.287
0.286
0.284
0.297
0.314
0.313
0.313
0.318
0.328
0.326
0.327
0.334
0.349
0.346
0.344
0.337
0.338
0.332
0.321
0.299
0.288
0.282
0.259
0.242
0.22
0.202
0.181
0.158
0.131
0.106
0.079
0.045
0.01
-0.015
-0.044
-0.076
-0.113
-0.141
-0.159
-0.185
-0.206
-0.226
-0.238
-0.26
-0.26
-0.271
-0.272
-0.276
-0.28
-0.288
-0.287
-0.281
-0.278
-0.278
-0.273
-0.257
-0.253
-0.243
-0.239
-0.227
-0.218
-0.21
-0.207
-0.193
-0.18
-0.179
-0.176
-0.165
-0.154
-0.149
-0.146
-0.142
-0.13
-0.133
-0.123
-0.121
-0.119
-0.116
-0.108
-0.108
-0.104
-0.1
-0.099
-0.1
-0.098
-0.09
-0.091
-0.085
-0.088
-0.085
-0.092
-0.083
-0.085
-0.087
-0.085
-0.083
-0.085
-0.082
-0.075
-0.075
-0.072
-0.072
-0.067
-0.066
-0.058
-0.053
-0.045
-0.048
-0.042
-0.049
-0.046
-0.047
-0.04
-0.037
-0.039
-0.029
-0.027
-0.025
-0.024
-0.026
-0.024
-0.017
-0.02
-0.017
-0.013
-0.004
-0.004
-0.003
0
0.005
0.005
0.007
0.013
0.01
0.022
0.025
0.019
0.02
0.029
0.035
0.043
0.064
0.091
0.103
0.109
0.11
0.126
0.139
0.15
0.151
0.145
0.128
0.104
0.107
0.087
0.07
0.049
0.039
0.041
0.034
0.025
0.016
0.017
0.011
0.015
0.01
0.015
0.009
0.022
0.025
0.029
0.025
0.024
0.03
0.036
0.037
0.033
0.031
0.026
0.035
0.09
0.206
0.288
0.475
0.605
0.724
0.819
0.747
0.312
-0.186
-0.722
-1.039
-1.096
-0.957
-0.766
-0.567
-0.296
-0.071
0.075
0.146
0.186
0.206
0.229
0.245
0.248
0.251
0.261
0.273
0.277
0.276
0.275
0.286
0.29
0.289
0.285
0.295
0.303
0.296
0.29
0.296
0.3
0.298
0.303
0.31
0.318
0.318
0.32
0.321
0.332
0.338
0.335
0.329
0.343
0.343
0.34
0.334
0.338
0.332
0.324
0.309
0.294
0.284
0.262
0.243
0.218
0.206
0.189
0.163
0.136
0.115
0.08
0.056
0.021
-0.002
-0.034
-0.07
-0.094
-0.121
-0.146
-0.168
-0.191
-0.219
-0.231
-0.246
-0.258
-0.267
-0.269
-0.276
-0.275
-0.275
-0.275
-0.281
-0.278
-0.273
-0.268
-0.269
-0.261
-0.256
-0.253
-0.242
-0.239
-0.232
-0.227
-0.213
-0.205
-0.195
-0.193
-0.183
-0.172
-0.17
-0.166
-0.166
-0.159
-0.157
-0.154
-0.154
-0.147
-0.143
-0.14
-0.142
-0.137
-0.134
-0.143
-0.138
-0.134
-0.131
-0.13
-0.13
-0.129
-0.129
-0.126
-0.123
-0.126
-0.121
-0.129
-0.123
-0.123
-0.124
-0.119
-0.119
-0.115
-0.112
-0.108
-0.111
-0.106
-0.106
-0.097
-0.102
-0.099
-0.103
-0.094
-0.093
-0.089
-0.091
-0.088
-0.084
-0.079
-0.073
-0.066
-0.066
-0.061
-0.061
-0.06
-0.053
-0.051
-0.054
-0.054
-0.044
-0.043
-0.035
-0.029
-0.014
0.009
0.021
0.039
0.041
0.047
0.064
0.094
0.093
0.096
0.084
0.056
0.046
0.033
0.015
-0.006
-0.017
-0.025
-0.031
-0.033
-0.033
-0.042
-0.037
-0.04
-0.037
-0.044
-0.042
-0.045
-0.039
-0.037
-0.034
-0.035
-0.026
-0.016
-0.015
-0.008
-0.008
-0.004
-0.016
0.016
0.105
0.219
0.358
0.548
0.649
0.787
0.799
0.533
0.032
-0.466
-0.96
-1.11
-1.081
-0.944
-0.775
-0.578
-0.31
-0.103
0.053
0.135
0.171
0.188
0.209
0.229
0.235
0.236
0.247
0.26
0.254
0.261
0.263
0.274
0.276
0.279
0.276
0.281
0.29
0.297
0.294
0.303
0.316
0.31
0.305
0.309
0.322
0.321
0.328
0.33
0.341
0.344
0.35
0.352
0.355
0.353
0.349
0.343
0.341
0.338
0.321
0.314
0.299
0.286
0.262
0.245
0.225
0.202
0.177
0.152
0.126
0.103
0.073
0.038
0.01
-0.015
-0.043
-0.074
-0.1
-0.121
-0.144
-0.168
-0.186
-0.202
-0.208
-0.215
-0.225
-0.228
-0.231
-0.232
-0.234
-0.235
-0.236
-0.227
-0.234
-0.223
-0.224
-0.22
-0.219
-0.212
-0.205
-0.196
-0.19
-0.186
-0.18
-0.169
-0.157
-0.154
-0.146
-0.143
-0.138
-0.137
-0.127
-0.126
-0.114
-0.106
-0.105
-0.107
-0.101
-0.094
-0.093
-0.099
-0.096
-0.088
-0.093
-0.092
-0.097
-0.094
-0.099
-0.095
-0.096
-0.096
-0.1
-0.091
-0.095
-0.099
-0.095
-0.098
-0.094
-0.093
-0.085
-0.093
-0.082
-0.079
-0.078
-0.079
-0.074
-0.071
-0.067
-0.062
-0.062
-0.059
-0.058
-0.054
-0.051
-0.04
-0.041
-0.038
-0.04
-0.036
-0.041
-0.035
-0.033
-0.027
-0.034
-0.03
-0.026
-0.021
-0.019
-0.015
-0.005
-0.005
0.016
0.039
0.053
0.064
0.075
0.077
0.095
0.119
0.121
0.117
0.104
0.078
0.061
0.057
0.036
0.019
-0.002
-0.003
-0.012
-0.013
-0.023
-0.027
-0.029
-0.036
-0.036
-0.032
-0.031
-0.031
-0.026
-0.032
-0.022
-0.02
-0.011
-0.015
-0.006
-0.009
-0.004
-0.003
-0.01
0.001
0.072
0.203
0.297
0.483
0.615
0.73
0.82
0.675
0.19
-0.298
-0.856
-1.131
-1.172
-1.038
-0.845
-0.636
-0.36
-0.126
0.037
0.114
0.163
0.19
0.209
0.223
0.235
0.24
0.245
0.25
0.258
0.257
0.259
0.266
0.271
0.27
0.271
0.281
0.281
0.28
0.278
0.281
0.284
0.288
0.289
0.291
0.295
0.301
0.305
0.303
0.309
0.319
0.322
0.322
0.327
0.328
0.322
0.319
0.316
0.304
0.298
0.288
0.27
0.261
0.245
0.22
0.199
0.179
0.156
0.132
0.103
0.074
0.044
0.016
-0.018
-0.05
-0.082
-0.108
-0.14
-0.16
-0.183
-0.204
-0.228
-0.243
-0.251
-0.264
-0.272
-0.278
-0.284
-0.287
-0.285
-0.288
-0.288
-0.289
-0.278
-0.279
-0.276
-0.266
-0.26
-0.26
-0.255
-0.244
-0.232
-0.223
-0.216
-0.206
-0.207
-0.195
-0.192
-0.183
-0.17
-0.165
-0.161
-0.156
-0.143
-0.139
-0.141
-0.139
-0.127
-0.13
-0.119
-0.118
-0.116
-0.121
-0.12
-0.122
-0.121
-0.12
-0.117
-0.115
-0.116
-0.107
-0.109
-0.109
-0.109
-0.102
-0.101
-0.101
-0.097
-0.1
-0.101
-0.094
-0.098
-0.093
-0.089
-0.082
-0.08
-0.084
-0.079
-0.079
-0.07
-0.07
-0.066
-0.07
-0.066
-0.064
-0.058
-0.05
-0.05
-0.047
-0.052
-0.045
-0.04
-0.036
-0.033
-0.031
-0.032
-0.026
-0.02
-0.021
-0.022
-0.019
-0.022
-0.019
-0.019
-0.02
-0.014
-0.013
-0.011
-0.012
-0.007
-0.003
0.003
0.003
0.009
0.011
0.017
0.019
0.027
0.029
0.03
0.035
0.036
0.04
0.041
0.044
0.039
0.048
0.055
0.061
0.058
0.059
0.056
0.06
0.058
0.057
0.057
0.057
0.059
0.063
0.069
0.07
0.072
0.068
0.073
0.071
0.067
0.065
0.069
0.064
0.067
0.068
0.067
0.064
0.069
0.074
0.073
0.07
0.069
0.074
0.075
0.084
0.084
0.087
0.092
0.114
0.134
0.139
0.151
0.151
0.164
0.183
0.194
0.184
0.172
0.154
0.131
0.122
0.103
0.075
0.063
0.053
0.054
0.045
0.034
0.031
0.021
0.013
0.009
0.014
0.011
0.014
0.013
0.013
0.013
0.017
0.013
0.015
0.018
0.016
0.012
0.011
0.01
0.018
0.082
0.19
0.286
0.448
0.583
0.679
0.712
0.641
0.202
-0.314
-0.783
-1.106
-1.182
-1.023
-0.817
-0.562
-0.297
-0.072
0.058
0.121
0.151
0.175
0.193
0.207
0.206
0.213
0.218
0.221
0.229
0.229
0.233
0.238
0.243
0.241
0.244
0.254
0.258
0.248
0.25
0.251
0.252
0.248
0.253
0.255
0.262
0.276
0.277
0.284
0.292
0.29
0.285
0.296
0.305
0.306
0.3
0.3
0.288
0.29
0.281
0.273
0.261
0.25
0.238
0.217
0.201
0.185
0.166
0.138
0.126
0.106
0.078
0.042
0.019
-0.018
-0.059
-0.093
-0.122
-0.154
-0.176
-0.199
-0.234
-0.251
-0.264
-0.281
-0.297
-0.309
-0.321
-0.326
-0.329
-0.323
-0.337
-0.336
-0.327
-0.329
-0.324
-0.321
-0.314
-0.314
-0.305
-0.297
-0.288
-0.288
-0.282
-0.271
-0.265
-0.259
-0.252
-0.247
-0.24
-0.232
-0.217
-0.216
-0.204
-0.198
-0.202
-0.193
-0.189
-0.184
-0.185
-0.175
-0.172
-0.171
-0.173
-0.167
-0.166
-0.169
-0.155
-0.161
-0.154
-0.155
-0.151
-0.154
-0.15
-0.147
-0.146
-0.143
-0.143
-0.139
-0.137
-0.127
-0.127
-0.125
-0.118
-0.114
-0.117
-0.112
-0.115
-0.101
-0.108
-0.098
-0.105
-0.103
-0.102
-0.093
-0.092
-0.09
-0.085
-0.082
-0.079
-0.073
-0.065
-0.065
-0.061
-0.06
-0.058
-0.062
-0.056
-0.052
-0.049
-0.041
-0.035
-0.038
-0.037
-0.032
-0.029
-0.023
-0.018
-0.013
-0.018
-0.014
-0.013
-0.015
-0.015
-0.008
-0.006
0
0.004
0.001
0.003
0.002
0.007
0.004
0.009
0.013
0.015
0.009
0.021
0.023
0.023
0.023
0.029
0.032
0.034
0.042
0.039
0.045
0.037
0.039
0.037
0.052
0.05
0.047
0.048
0.056
0.054
0.056
0.06
0.063
0.06
0.061
0.068
0.064
0.065
0.066
0.066
0.064
0.069
0.066
0.074
0.077
0.079
0.078
0.074
0.073
0.075
0.077
0.079
0.083
0.084
0.087
0.094
0.094
0.095
0.112
0.117
0.131
0.148
0.16
0.166
0.184
0.197
0.196
0.181
0.177
0.161
0.148
0.136
0.111
0.095
0.082
0.08
0.072
0.06
0.054
0.047
0.042
0.04
0.04
0.041
0.033
0.033
0.03
0.029
0.038
0.034
0.036
0.036
0.039
0.036
0.038
0.033
0.044
0.105
0.207
0.308
0.475
0.61
0.718
0.757
0.68
0.226
-0.271
-0.749
-1.054
-1.108
-0.929
-0.726
-0.476
-0.215
-0.001
0.11
0.164
0.192
0.216
0.23
0.245
0.246
0.256
0.264
0.269
0.27
0.271
0.276
0.276
0.276
0.271
0.275
0.279
0.282
0.28
0.282
0.281
0.288
0.287
0.293
0.296
0.303
0.303
0.304
0.316
0.319
0.323
0.323
0.323
0.331
0.34
0.332
0.331
0.326
0.328
0.318
0.308
0.294
0.283
0.261
0.241
0.227
0.214
0.19
0.16
0.142
0.115
0.087
0.051
0.022
-0.016
-0.049
-0.08
-0.116
-0.144
-0.179
-0.204
-0.23
-0.25
-0.272
-0.285
-0.299
-0.312
-0.319
-0.319
-0.331
-0.33
-0.333
-0.335
-0.335
-0.332
-0.33
-0.321
-0.32
-0.318
-0.306
-0.3
-0.295
-0.291
-0.277
-0.269
-0.26
-0.254
-0.243
-0.235
-0.227
-0.225
-0.215
-0.211
-0.203
-0.189
-0.189
-0.184
-0.174
-0.175
-0.18
-0.169
-0.166
-0.164
-0.163
-0.162
-0.162
-0.16
-0.151
-0.153
-0.154
-0.152
-0.144
-0.145
-0.14
-0.142
-0.135
-0.137
-0.127
-0.128
-0.126
-0.122
-0.121
-0.125
-0.127
-0.118
-0.116
-0.117
-0.112
-0.104
-0.106
-0.101
-0.097
-0.091
-0.088
-0.081
-0.081
-0.078
-0.072
-0.068
-0.068
-0.065
-0.058
-0.057
-0.054
-0.048
-0.043
-0.048
-0.038
-0.034
-0.033
-0.033
-0.031
-0.027
-0.028
-0.027
-0.02
-0.016
-0.015
-0.006
-0.012
-0.009
-0.007
-0.007
-0.009
-0.004
-0.003
0.002
0
0.005
0.004
0.008
0.011
0.011
0.011
0.017
0.026
0.031
0.04
0.056
0.07
0.089
0.109
0.111
0.125
0.148
0.161
0.153
0.153
0.132
0.111
0.099
0.088
0.064
0.038
0.037
0.032
0.029
0.02
0.014
0.011
0.014
0.023
0.019
0.015
0.016
0.021
0.018
0.019
0.029
0.031
0.038
0.049
0.046
0.046
0.034
0.056
0.131
0.242
0.36
0.55
0.678
0.815
0.869
0.684
0.199
-0.278
-0.831
-1.031
-1.032
-0.912
-0.731
-0.541
-0.286
-0.087
0.068
0.154
0.19
0.209
0.229
0.245
0.249
0.261
0.272
0.275
0.275
0.274
0.274
0.285
0.294
0.287
0.282
0.288
0.297
0.295
0.298
0.301
0.31
0.306
0.307
0.308
0.317
0.319
0.32
0.321
0.324
0.334
0.336
0.339
0.341
0.345
0.341
0.338
0.338
0.335
0.316
0.304
0.293
0.282
0.267
0.248
0.221
0.2
0.178
0.153
0.124
0.096
0.072
0.031
0.003
-0.029
-0.06
-0.098
-0.122
-0.155
-0.182
-0.207
-0.225
-0.25
-0.268
-0.271
-0.285
-0.293
-0.295
-0.293
-0.297
-0.298
-0.301
-0.298
-0.293
-0.281
-0.282
-0.279
-0.272
-0.267
-0.267
-0.26
-0.251
-0.248
-0.24
-0.228
-0.219
-0.219
-0.208
-0.2
-0.197
-0.185
-0.178
-0.174
-0.164
-0.151
-0.151
-0.149
-0.14
-0.134
-0.13
-0.129
-0.123
-0.117
-0.122
-0.117
-0.114
-0.116
-0.115
-0.111
-0.116
-0.116
-0.111
-0.106
-0.105
-0.1
-0.1
-0.108
-0.102
-0.101
-0.095
-0.1
-0.095
-0.098
-0.095
-0.089
-0.082
-0.082
-0.082
-0.07
-0.076
-0.074
-0.078
-0.071
-0.067
-0.064
-0.07
-0.074
-0.072
-0.063
-0.058
-0.057
-0.053
-0.048
-0.045
-0.04
-0.03
-0.03
-0.034
-0.031
-0.023
-0.024
-0.017
-0.02
-0.021
-0.017
-0.01
-0.009
-0.006
-0.004
0.001
0.004
0.008
0.006
0.008
0.021
0.033
0.034
0.031
0.056
0.066
0.083
0.097
0.104
0.109
0.132
0.132
0.128
0.12
0.093
0.077
0.067
0.056
0.043
0.027
0.019
0.02
0.012
0.001
-0.005
-0.009
-0.011
-0.011
-0.007
-0.013
-0.012
-0.008
-0.006
-0.014
-0.004
-0.005
0.003
-0.001
-0.002
-0.006
-0.013
0.011
0.089
0.202
0.323
0.512
0.629
0.768
0.81
0.603
0.095
-0.395
-0.939
-1.128
-1.13
-0.984
-0.793
-0.587
-0.319
-0.105
0.048
0.123
0.164
0.184
0.205
0.216
0.228
0.229
0.236
0.241
0.243
0.242
0.248
0.254
0.254
0.26
0.258
0.269
0.271
0.27
0.268
0.274
0.279
0.278
0.278
0.287
0.292
0.29
0.296
0.304
0.314
0.319
0.323
0.319
0.333
0.337
0.334
0.326
0.326
0.322
0.315
0.301
0.292
0.278
0.261
0.242
0.223
0.205
0.182
0.153
0.123
0.098
0.069
0.034
-0.001
-0.028
-0.063
-0.096
-0.126
-0.155
-0.181
-0.206
-0.222
-0.24
-0.253
-0.265
-0.273
-0.292
-0.289
-0.294
-0.297
-0.304
-0.302
-0.308
-0.304
-0.301
-0.291
-0.291
-0.288
-0.279
-0.283
-0.269
-0.267
-0.256
-0.255
-0.244
-0.239
-0.233
-0.226
-0.213
-0.212
-0.211
-0.203
-0.198
-0.185
-0.175
-0.17
-0.173
-0.164
-0.158
-0.152
-0.15
-0.139
-0.149
-0.144
-0.135
-0.133
-0.134
-0.136
-0.13
-0.132
-0.125
-0.13
-0.123
-0.125
-0.119
-0.117
-0.12
-0.118
-0.114
-0.114
-0.106
-0.1
-0.098
-0.098
-0.094
-0.089
-0.09
-0.08
-0.077
-0.074
-0.077
-0.074
-0.068
-0.064
-0.066
-0.068
-0.069
-0.061
-0.06
-0.055
-0.053
-0.052
-0.049
-0.053
-0.044
-0.044
-0.039
-0.043
-0.035
-0.034
-0.034
-0.032
-0.031
-0.029
-0.028
-0.022
-0.017
-0.015
-0.014
-0.01
-0.013
-0.004
-0.005
-0.002
-0.003
0.005
0.009
0.005
0.011
0.012
0.017
0.021
0.029
0.025
0.044
0.073
0.085
0.093
0.102
0.107
0.131
0.136
0.133
0.123
0.116
0.097
0.088
0.071
0.06
0.049
0.044
0.033
0.028
0.02
0.013
0.015
0.008
0.01
0.01
0.017
0.013
0.015
0.016
0.021
0.02
0.028
0.034
0.032
0.038
0.041
0.041
0.031
0.073
0.177
0.258
0.431
0.592
0.697
0.815
0.812
0.522
-0.03
-0.549
-1.007
-1.156
-1.1
-0.888
-0.677
-0.413
-0.159
0.037
0.125
0.183
0.21
0.224
0.243
0.252
0.251
0.264
0.275
0.277
0.275
0.279
0.28
0.287
0.293
0.3
0.296
0.304
0.308
0.315
0.314
0.323
0.328
0.326
0.331
0.336
0.343
0.34
0.348
0.349
0.36
0.364
0.362
0.365
0.373
0.376
0.372
0.37
0.368
0.365
0.35
0.34
0.331
0.314
0.295
0.275
0.25
0.229
0.209
0.182
0.154
0.124
0.1
0.064
0.037
0.003
-0.034
-0.071
-0.097
-0.122
-0.151
-0.179
-0.202
-0.221
-0.231
-0.244
-0.254
-0.268
-0.271
-0.271
-0.281
-0.272
-0.272
-0.273
-0.281
-0.275
-0.277
-0.265
-0.261
-0.253
-0.245
-0.24
-0.237
-0.232
-0.217
-0.213
-0.202
-0.2
-0.19
-0.182
-0.176
-0.172
-0.166
-0.164
-0.159
-0.152
-0.148
-0.139
-0.134
-0.129
-0.129
-0.125
-0.111
-0.114
-0.12
-0.116
-0.119
-0.113
-0.116
-0.108
-0.113
-0.104
-0.101
-0.102
-0.103
-0.103
-0.098
-0.095
-0.094
-0.094
-0.088
-0.091
-0.092
-0.089
-0.087
-0.081
-0.08
-0.084
-0.081
-0.073
-0.068
-0.071
-0.066
-0.065
-0.061
-0.053
-0.053
-0.049
-0.05
-0.042
-0.048
-0.045
-0.046
-0.041
-0.042
-0.042
-0.04
-0.039
-0.033
-0.032
-0.029
-0.026
-0.021
-0.017
-0.015
-0.017
-0.008
-0.008
-0.001
0.003
0.003
0.004
0.007
0.014
0.013
0.014
0.014
0.022
0.016
0.024
0.023
0.038
0.037
0.057
0.072
0.089
0.102
0.109
0.108
0.12
0.129
0.126
0.128
0.123
0.1
0.075
0.066
0.055
0.038
0.025
0.028
0.019
0.016
0.013
0.005
0.003
-0.003
0.004
0.004
0.001
0.001
0.006
0.011
0.012
0.017
0.023
0.029
0.034
0.031
0.025
0.022
0.038
0.105
0.203
0.306
0.478
0.622
0.739
0.795
0.668
0.188
-0.313
-0.822
-1.092
-1.127
-0.941
-0.744
-0.489
-0.224
-0.014
0.095
0.155
0.186
0.209
0.225
0.238
0.243
0.246
0.249
0.257
0.259
0.262
0.266
0.272
0.276
0.272
0.276
0.284
0.284
0.28
0.293
0.295
0.297
0.297
0.302
0.303
0.306
0.308
0.31
0.317
0.325
0.33
0.326
0.329
0.338
0.341
0.334
0.335
0.332
0.329
0.324
0.311
0.3
0.287
0.272
0.25
0.236
0.213
0.193
0.165
0.144
0.118
0.087
0.056
0.022
-0.016
-0.044
-0.073
-0.108
-0.143
-0.176
-0.198
-0.22
-0.238
-0.259
-0.274
-0.292
-0.3
-0.309
-0.307
-0.314
-0.313
-0.318
-0.311
-0.303
-0.306
-0.302
-0.296
-0.283
-0.283
-0.27
-0.263
-0.257
-0.259
-0.245
-0.238
-0.23
-0.225
-0.214
-0.208
-0.202
-0.19
-0.191
-0.181
-0.172
-0.167
-0.167
-0.166
-0.162
-0.156
-0.155
-0.152
-0.152
-0.143
-0.143
-0.138
-0.14
-0.139
-0.133
-0.132
-0.136
-0.132
-0.13
-0.133
-0.129
-0.127
-0.128
-0.13
-0.12
-0.121
-0.122
-0.12
-0.116
-0.116
-0.112
-0.108
-0.11
-0.103
-0.099
-0.097
-0.099
-0.092
-0.085
-0.082
-0.081
-0.078
-0.081
-0.076
-0.07
-0.067
-0.063
-0.062
-0.061
-0.061
-0.053
-0.049
-0.045
-0.045
-0.039
-0.036
-0.037
-0.033
-0.026
-0.021
-0.02
-0.013
-0.014
-0.011
-0.007
-0.006
-0.003
0.004
0.004
0.005
0.003
0.013
0.017
0.015
0.016
0.018
0.017
0.017
0.026
0.025
0.025
0.027
0.025
0.023
0.027
0.026
0.029
0.026
0.024
0.023
0.03
0.032
0.03
0.033
0.039
0.037
0.046
0.061
0.068
0.084
0.099
0.114
0.123
0.134
0.136
0.137
0.137
0.139
0.133
0.132
0.119
0.095
0.093
0.08
0.069
0.052
0.046
0.041
0.034
0.02
0.015
0.014
0.014
0.012
0.013
0.017
0.013
0.013
0.014
0.017
0.018
0.027
0.032
0.03
0.02
0.028
0.02
0.015
0.055
0.168
0.241
0.419
0.565
0.676
0.776
0.747
0.382
-0.147
-0.664
-1.034
-1.113
-1.008
-0.807
-0.607
-0.347
-0.113
0.051
0.125
0.158
0.186
0.201
0.212
0.22
0.223
0.227
0.238
0.235
0.241
0.245
0.254
0.259
0.258
0.262
0.263
0.271
0.272
0.275
0.273
0.278
0.281
0.282
0.282
0.291
0.294
0.294
0.292
0.298
0.303
0.307
0.309
0.318
0.321
0.325
0.327
0.323
0.33
0.32
0.307
0.293
0.29
0.277
0.26
0.24
0.22
0.197
0.171
0.15
0.121
0.096
0.063
0.036
-0.001
-0.025
-0.058
-0.095
-0.124
-0.149
-0.176
-0.206
-0.228
-0.242
-0.256
-0.274
-0.285
-0.297
-0.299
-0.308
-0.307
-0.313
-0.305
-0.31
-0.304
-0.295
-0.293
-0.29
-0.287
-0.277
-0.269
-0.26
-0.25
-0.241
-0.24
-0.227
-0.227
-0.217
-0.213
-0.204
-0.207
-0.204
-0.191
-0.185
-0.183
-0.185
-0.175
-0.174
-0.167
-0.159
-0.156
-0.158
-0.155
-0.154
-0.152
-0.154
-0.146
-0.153
-0.153
-0.148
-0.148
-0.144
-0.145
-0.141
-0.14
-0.132
-0.13
-0.128
-0.128
-0.114
-0.12
-0.112
-0.111
-0.104
-0.096
-0.098
-0.091
-0.089
-0.088
-0.084
-0.074
-0.077
-0.069
-0.066
-0.067
-0.072
-0.07
-0.068
-0.062
-0.061
-0.051
-0.057
-0.054
-0.048
-0.048
-0.053
-0.044
-0.04
-0.043
-0.044
-0.043
-0.034
-0.033
-0.026
-0.023
-0.022
-0.021
-0.017
-0.02
-0.016
-0.014
-0.012
0.003
0.016
0.016
0.024
0.053
0.057
0.073
0.082
0.086
0.096
0.11
0.114
0.107
0.105
0.095
0.079
0.063
0.054
0.045
0.029
0.018
0.016
0.008
0.004
0.001
0
-0.007
-0.005
0.002
-0.002
0.006
0.004
0.007
0.002
0.01
0.021
0.023
0.018
0.022
0.025
0.019
0.021
0.064
0.165
0.265
0.442
0.614
0.725
0.861
0.797
0.442
-0.037
-0.582
-0.98
-1.062
-0.997
-0.853
-0.683
-0.462
-0.215
-0.029
0.096
0.161
0.192
0.215
0.233
0.245
0.239
0.247
0.253
0.26
0.258
0.26
0.264
0.274
0.277
0.275
0.277
0.279
0.285
0.28
0.29
0.298
0.299
0.296
0.291
0.298
0.304
0.308
0.311
0.316
0.328
0.33
0.334
0.338
0.34
0.344
0.34
0.342
0.343
0.335
0.319
0.31
0.294
0.281
0.265
0.244
0.225
0.205
0.184
0.163
0.127
0.106
0.08
0.041
0.017
-0.019
-0.045
-0.08
-0.107
-0.134
-0.154
-0.176
-0.195
-0.214
-0.226
-0.23
-0.246
-0.252
-0.261
-0.259
-0.266
-0.262
-0.268
-0.268
-0.264
-0.264
-0.264
-0.256
-0.251
-0.247
-0.241
-0.23
-0.225
-0.222
-0.211
-0.204
-0.196
-0.195
-0.191
-0.187
-0.179
-0.172
-0.166
-0.163
-0.155
-0.149
-0.15
-0.139
-0.131
-0.13
-0.135
-0.122
-0.121
-0.119
-0.124
-0.12
-0.122
-0.117
-0.119
-0.114
-0.115
-0.112
-0.102
-0.105
-0.102
-0.098
-0.099
-0.102
-0.095
-0.095
-0.098
-0.1
-0.094
-0.092
-0.092
-0.09
-0.089
-0.081
-0.081
-0.073
-0.075
-0.072
-0.067
-0.063
-0.062
-0.057
-0.06
-0.056
-0.052
-0.047
-0.043
-0.037
-0.032
-0.028
-0.02
-0.003
0.024
0.027
0.045
0.047
0.052
0.072
0.083
0.084
0.077
0.068
0.047
0.037
0.019
0.006
-0.014
-0.026
-0.028
-0.032
-0.044
-0.046
-0.05
-0.05
-0.047
-0.045
-0.049
-0.049
-0.044
-0.042
-0.036
-0.031
-0.026
-0.018
-0.01
-0.006
-0.006
-0.002
-0.008
0.002
0.072
0.2
0.305
0.491
0.623
0.753
0.848
0.681
0.208
-0.285
-0.863
-1.116
-1.143
-1.024
-0.833
-0.635
-0.371
-0.138
0.038
0.124
0.164
0.191
0.21
0.224
0.233
0.242
0.251
0.256
0.262
0.261
0.265
0.266
0.273
0.272
0.274
0.279
0.285
0.292
0.283
0.287
0.293
0.297
0.301
0.303
0.309
0.314
0.313
0.316
0.321
0.33
0.333
0.334
0.342
0.347
0.343
0.344
0.347
0.34
0.333
0.321
0.312
0.296
0.285
0.262
0.242
0.22
0.197
0.172
0.144
0.122
0.09
0.059
0.021
-0.008
-0.044
-0.071
-0.106
-0.132
-0.155
-0.174
-0.205
-0.224
-0.232
-0.244
-0.256
-0.258
-0.261
-0.266
-0.269
-0.27
-0.272
-0.276
-0.267
-0.269
-0.264
-0.26
-0.247
-0.244
-0.237
-0.229
-0.218
-0.21
-0.203
-0.19
-0.182
-0.176
-0.173
-0.16
-0.154
-0.149
-0.143
-0.138
-0.135
-0.123
-0.121
-0.116
-0.109
-0.107
-0.109
-0.103
-0.104
-0.107
-0.101
-0.098
-0.093
-0.102
-0.093
-0.1
-0.1
-0.094
-0.087
-0.092
-0.09
-0.094
-0.09
-0.089
-0.088
-0.085
-0.085
-0.082
-0.074
-0.074
-0.072
-0.064
-0.064
-0.062
-0.059
-0.056
-0.058
-0.059
-0.055
-0.052
-0.05
-0.047
-0.041
-0.041
-0.034
-0.036
-0.033
-0.036
-0.03
-0.031
-0.028
-0.027
-0.028
-0.027
-0.024
-0.023
-0.025
-0.019
-0.015
-0.011
-0.015
-0.008
-0.009
-0.008
-0.01
-0.004
0.002
0.008
0.016
0.026
0.04
0.064
0.082
0.089
0.099
0.1
0.114
0.136
0.14
0.129
0.12
0.097
0.081
0.068
0.038
0.028
0.013
0.006
-0.001
-0.003
-0.01
-0.021
-0.03
-0.031
-0.026
-0.017
-0.015
-0.021
-0.022
-0.016
-0.013
-0.011
-0.003
0.003
0.006
0.012
0.015
0.009
0.002
0.046
0.159
0.239
0.415
0.58
0.682
0.784
0.773
0.475
-0.081
-0.591
-1.034
-1.172
-1.101
-0.884
-0.672
-0.394
-0.147
0.039
0.125
0.173
0.199
0.219
0.231
0.234
0.245
0.25
0.258
0.257
0.256
0.258
0.265
0.262
0.266
0.266
0.269
0.28
0.281
0.277
0.284
0.297
0.296
0.297
0.302
0.309
0.312
0.312
0.314
0.325
0.327
0.334
0.33
0.341
0.349
0.351
0.347
0.344
0.349
0.343
0.336
0.324
0.312
0.289
0.276
0.258
0.24
0.216
0.198
0.165
0.138
0.113
0.082
0.049
0.01
-0.019
-0.057
-0.083
-0.117
-0.144
-0.175
-0.193
-0.216
-0.236
-0.251
-0.265
-0.273
-0.277
-0.28
-0.285
-0.286
-0.288
-0.282
-0.287
-0.278
-0.271
-0.264
-0.263
-0.252
-0.251
-0.242
-0.232
-0.231
-0.221
-0.213
-0.203
-0.2
-0.195
-0.19
-0.177
-0.174
-0.17
-0.169
-0.155
-0.152
-0.145
-0.143
-0.139
-0.134
-0.126
-0.126
-0.124
-0.117
-0.113
-0.112
-0.116
-0.111
-0.112
-0.11
-0.108
-0.103
-0.108
-0.106
-0.104
-0.101
-0.096
-0.096
-0.098
-0.094
-0.089
-0.092
-0.088
-0.081
-0.085
-0.086
-0.083
-0.083
-0.077
-0.073
-0.072
-0.07
-0.069
-0.062
-0.06
-0.052
-0.048
-0.046
-0.048
-0.051
-0.047
-0.046
-0.047
-0.048
-0.05
-0.041
-0.037
-0.035
-0.03
-0.032
-0.03
-0.028
-0.026
-0.023
-0.015
-0.016
-0.018
-0.016
-0.014
-0.014
-0.011
-0.01
-0.006
-0.003
0.006
0.005
0.007
0.001
0.002
0.012
0.012
0.011
0.007
0.012
0.008
0.006
0.007
0.011
0.012
0.012
0.015
0.016
0.02
0.023
0.022
0.017
0.021
0.019
0.02
0.016
0.026
0.028
0.029
0.028
0.033
0.033
0.035
0.038
0.038
0.037
0.036
0.039
0.036
0.044
0.042
0.042
0.041
0.043
0.042
0.044
0.043
0.045
0.044
0.039
0.04
0.038
0.036
0.04
0.049
0.055
0.056
0.062
0.08
0.091
0.102
0.111
0.11
0.113
0.115
0.121
0.119
0.105
0.104
0.093
0.068
0.064
0.055
0.045
0.029
0.026
0.019
0.018
0.009
-0.006
-0.008
-0.005
-0.011
-0.012
-0.007
-0.006
-0.006
-0.002
0.002
-0.008
-0.005
-0.002
0
0.002
0.01
0.006
-0.006
0.012
0.092
0.178
0.302
0.468
0.593
0.711
0.753
0.607
0.094
-0.392
-0.872
-1.099
-1.109
-0.908
-0.709
-0.448
-0.199
-0.01
0.085
0.135
0.155
0.176
0.192
0.205
0.209
0.211
0.229
0.225
0.23
0.23
0.243
0.246
0.245
0.247
0.25
0.261
0.261
0.258
0.256
0.267
0.266
0.27
0.266
0.279
0.286
0.289
0.287
0.296
0.302
0.306
0.31
0.306
0.317
0.318
0.323
0.314
0.322
0.318
0.299
0.283
0.278
0.267
0.243
0.23
0.214
0.196
0.178
0.149
0.125
0.1
0.074
0.046
0.009
-0.017
-0.055
-0.087
-0.12
-0.153
-0.182
-0.21
-0.234
-0.258
-0.271
-0.292
-0.307
-0.321
-0.321
-0.326
-0.332
-0.344
-0.336
-0.336
-0.335
-0.33
-0.326
-0.325
-0.319
-0.315
-0.314
-0.302
-0.298
-0.291
-0.285
-0.272
-0.268
-0.261
-0.254
-0.247
-0.241
-0.234
-0.231
-0.218
-0.211
-0.206
-0.197
-0.201
-0.189
-0.186
-0.18
-0.185
-0.175
-0.169
-0.165
-0.159
-0.156
-0.156
-0.16
-0.151
-0.144
-0.14
-0.138
-0.133
-0.136
-0.139
-0.13
-0.122
-0.131
-0.127
-0.128
-0.119
-0.112
-0.112
-0.112
-0.109
-0.105
-0.101
-0.097
-0.09
-0.083
-0.087
-0.083
-0.079
-0.078
-0.079
-0.071
-0.07
-0.067
-0.056
-0.054
-0.055
-0.057
-0.049
-0.047
-0.046
-0.043
-0.037
-0.039
-0.033
-0.033
-0.032
-0.028
-0.025
-0.026
-0.028
-0.023
-0.019
-0.017
-0.011
-0.01
-0.011
-0.006
-0.005
0.001
0.001
0.004
0.003
0.011
0.014
0.017
0.018
0.017
0.02
0.026
0.026
0.032
0.037
0.032
0.035
0.036
0.042
0.039
0.045
0.038
0.045
0.049
0.048
0.047
0.047
0.056
0.056
0.054
0.06
0.062
0.059
0.056
0.06
0.063
0.061
0.06
0.06
0.058
0.063
0.065
0.067
0.069
0.073
0.076
0.075
0.078
0.082
0.079
0.082
0.079
0.084
0.078
0.08
0.077
0.074
0.075
0.075
0.071
0.079
0.092
0.086
0.107
0.124
0.138
0.145
0.157
0.157
0.157
0.156
0.166
0.163
0.146
0.148
0.123
0.113
0.109
0.102
0.083
0.074
0.071
0.061
0.052
0.048
0.041
0.04
0.031
0.036
0.031
0.034
0.035
0.034
0.04
0.042
0.047
0.043
0.05
0.054
0.058
0.053
0.048
0.054
0.113
0.224
0.314
0.493
0.625
0.758
0.814
0.733
0.276
-0.213
-0.745
-1.009
-1.052
-0.913
-0.728
-0.529
-0.279
-0.078
0.074
0.141
0.174
0.197
0.22
0.23
0.234
0.24
0.244
0.251
0.252
0.247
0.248
0.259
0.259
0.25
0.25
0.261
0.266
0.264
0.267
0.271
0.273
0.278
0.279
0.282
0.287
0.291
0.288
0.29
0.3
0.305
0.304
0.305
0.317
0.317
0.312
0.316
0.318
0.31
0.304
0.294
0.286
0.272
0.261
0.235
0.217
0.202
0.184
0.151
0.127
0.105
0.082
0.044
0.015
-0.016
-0.053
-0.083
-0.122
-0.151
-0.183
-0.206
-0.233
-0.258
-0.276
-0.288
-0.305
-0.312
-0.321
-0.329
-0.336
-0.341
-0.334
-0.339
-0.335
-0.334
-0.329
-0.323
-0.317
-0.311
-0.3
-0.29
-0.287
-0.28
-0.276
-0.268
-0.262
-0.244
-0.242
-0.238
-0.232
-0.224
-0.217
-0.21
-0.197
-0.201
-0.196
-0.191
-0.186
-0.182
-0.176
-0.169
-0.164
-0.169
-0.164
-0.161
-0.155
-0.157
-0.152
-0.155
-0.158
-0.151
-0.146
-0.148
-0.151
-0.147
-0.144
-0.139
-0.139
-0.133
-0.137
-0.131
-0.132
-0.131
-0.126
-0.124
-0.125
-0.123
-0.118
-0.111
-0.112
-0.106
-0.108
-0.104
-0.104
-0.106
-0.097
-0.098
-0.09
-0.084
-0.087
-0.086
-0.083
-0.077
-0.075
-0.064
-0.064
-0.063
-0.058
-0.056
-0.054
-0.047
-0.04
-0.042
-0.038
-0.028
-0.025
-0.021
-0.02
-0.023
-0.021
-0.02
-0.008
-0.011
-0.009
-0.006
0.003
-0.003
0.003
0.012
0.008
0.009
0.006
0.006
0.008
0.011
0.015
0.014
0.021
0.028
0.026
0.023
0.028
0.03
0.028
0.031
0.022
0.027
0.03
0.033
0.034
0.033
0.036
0.042
0.044
0.046
0.053
0.051
0.053
0.059
0.063
0.056
0.066
0.065
0.064
0.062
0.068
0.075
0.074
0.087
0.104
0.115
0.124
0.135
0.13
0.145
0.153
0.166
0.164
0.146
0.134
0.118
0.094
0.088
0.084
0.07
0.061
0.054
0.045
0.039
0.03
0.022
0.022
0.018
0.016
0.009
0.017
0.013
0.017
0.026
0.027
0.031
0.034
0.035
0.034
0.032
0.026
0.015
0.033
0.113
0.225
0.347
0.525
0.651
0.781
0.809
0.624
0.149
-0.339
-0.88
-1.063
-1.067
-0.943
-0.76
-0.568
-0.324
-0.116
0.048
0.128
0.161
0.184
0.209
0.223
0.23
0.233
0.241
0.241
0.248
0.246
0.25
0.258
0.262
0.255
0.259
0.259
0.267
0.271
0.271
0.275
0.277
0.281
0.279
0.286
0.287
0.292
0.281
0.297
0.305
0.31
0.306
0.315
0.316
0.32
0.32
0.321
0.321
0.315
0.311
0.293
0.286
0.279
0.263
0.235
0.222
0.205
0.18
0.154
0.138
0.109
0.081
0.053
0.021
-0.01
-0.04
-0.073
-0.11
-0.139
-0.163
-0.194
-0.22
-0.233
-0.254
-0.273
-0.288
-0.293
-0.301
-0.308
-0.31
-0.309
-0.308
-0.309
-0.301
-0.309
-0.302
-0.294
-0.288
-0.287
-0.281
-0.276
-0.271
-0.266
-0.26
-0.254
-0.247
-0.24
-0.237
-0.225
-0.217
-0.21
-0.211
-0.197
-0.193
-0.187
-0.185
-0.179
-0.177
-0.169
-0.164
-0.161
-0.16
-0.157
-0.146
-0.148
-0.148
-0.138
-0.137
-0.136
-0.132
-0.131
-0.126
-0.128
-0.124
-0.126
-0.126
-0.117
-0.118
-0.113
-0.111
-0.109
-0.115
-0.11
-0.106
-0.107
-0.106
-0.101
-0.099
-0.095
-0.092
-0.089
-0.087
-0.078
-0.071
-0.069
-0.065
-0.064
-0.06
-0.055
-0.051
-0.047
-0.045
-0.046
-0.044
-0.045
-0.043
-0.037
-0.033
-0.036
-0.031
-0.022
-0.021
-0.014
-0.015
-0.009
-0.014
-0.013
-0.007
-0.006
-0.005
0.002
0.004
0.003
0.012
0.01
0.015
0.015
0.018
0.02
0.02
0.022
0.03
0.03
0.033
0.029
0.034
0.039
0.038
0.031
0.035
0.035
0.034
0.032
0.033
0.037
0.034
0.038
0.036
0.041
0.042
0.049
0.054
0.066
0.064
0.08
0.096
0.101
0.12
0.125
0.129
0.135
0.138
0.139
0.136
0.124
0.117
0.091
0.083
0.073
0.064
0.051
0.04
0.033
0.02
0.019
0.012
0.006
0.008
0.008
0.002
0.002
0.002
0.006
